June 2, 2015   10:24:35
Cyclic Voltammetry
File: cv4 2mm benzophenone.bin
Data Source:  Experiment
Instrument Model:  CHI601D
Header: 
Note: 

Init E (V) = 0
High E (V) = 0
Low E (V) = -2.7
Init P/N = N
Scan Rate (V/s) = 0.5
Segment = 2
Sample Interval (V) = 0.001
Quiet Time (sec) = 2
Sensitivity (A/V) = 1e-5

Segment 1:
Ep = -1.566V
ip = -1.199e-5A
Ah = -1.634e-6C

Segment 2:
Ep = -1.484V
ip = 5.159e-6A
Ah = 7.157e-7C

Potential/V, Current/A

0.000, -6.419e-9
-0.001, -4.927e-8
-0.002, -6.151e-8
-0.003, -6.457e-8
-0.004, -6.764e-8
-0.005, -7.070e-8
-0.006, -7.070e-8
-0.007, -7.070e-8
-0.008, -7.376e-8
-0.009, -7.070e-8
-0.010, -7.376e-8
-0.011, -7.682e-8
-0.012, -7.682e-8
-0.013, -7.682e-8
-0.014, -7.988e-8
-0.015, -7.988e-8
-0.016, -7.988e-8
-0.017, -7.988e-8
-0.018, -7.988e-8
-0.019, -7.988e-8
-0.020, -7.988e-8
-0.021, -8.294e-8
-0.022, -8.294e-8
-0.023, -8.294e-8
-0.024, -8.294e-8
-0.025, -8.600e-8
-0.026, -8.600e-8
-0.027, -8.600e-8
-0.028, -8.600e-8
-0.029, -8.294e-8
-0.030, -8.600e-8
-0.031, -8.600e-8
-0.032, -8.906e-8
-0.033, -8.906e-8
-0.034, -9.212e-8
-0.035, -8.906e-8
-0.036, -8.906e-8
-0.037, -8.906e-8
-0.038, -8.906e-8
-0.039, -8.906e-8
-0.040, -8.906e-8
-0.041, -9.212e-8
-0.042, -9.212e-8
-0.043, -9.212e-8
-0.044, -9.212e-8
-0.045, -9.518e-8
-0.046, -9.212e-8
-0.047, -9.518e-8
-0.048, -9.518e-8
-0.049, -9.212e-8
-0.050, -9.212e-8
-0.051, -9.518e-8
-0.052, -9.518e-8
-0.053, -9.824e-8
-0.054, -9.824e-8
-0.055, -9.824e-8
-0.056, -9.824e-8
-0.057, -9.824e-8
-0.058, -9.824e-8
-0.059, -9.518e-8
-0.060, -9.824e-8
-0.061, -9.824e-8
-0.062, -1.013e-7
-0.063, -9.824e-8
-0.064, -1.013e-7
-0.065, -1.013e-7
-0.066, -1.013e-7
-0.067, -1.013e-7
-0.068, -1.013e-7
-0.069, -9.824e-8
-0.070, -1.013e-7
-0.071, -1.013e-7
-0.072, -1.013e-7
-0.073, -1.044e-7
-0.074, -1.044e-7
-0.075, -1.044e-7
-0.076, -1.044e-7
-0.077, -1.044e-7
-0.078, -1.044e-7
-0.079, -1.044e-7
-0.080, -1.044e-7
-0.081, -1.044e-7
-0.082, -1.044e-7
-0.083, -1.044e-7
-0.084, -1.074e-7
-0.085, -1.074e-7
-0.086, -1.074e-7
-0.087, -1.074e-7
-0.088, -1.074e-7
-0.089, -1.044e-7
-0.090, -1.074e-7
-0.091, -1.074e-7
-0.092, -1.074e-7
-0.093, -1.105e-7
-0.094, -1.105e-7
-0.095, -1.105e-7
-0.096, -1.105e-7
-0.097, -1.105e-7
-0.098, -1.105e-7
-0.099, -1.105e-7
-0.100, -1.105e-7
-0.101, -1.135e-7
-0.102, -1.135e-7
-0.103, -1.135e-7
-0.104, -1.135e-7
-0.105, -1.135e-7
-0.106, -1.135e-7
-0.107, -1.135e-7
-0.108, -1.135e-7
-0.109, -1.105e-7
-0.110, -1.135e-7
-0.111, -1.135e-7
-0.112, -1.166e-7
-0.113, -1.166e-7
-0.114, -1.166e-7
-0.115, -1.166e-7
-0.116, -1.166e-7
-0.117, -1.166e-7
-0.118, -1.166e-7
-0.119, -1.166e-7
-0.120, -1.166e-7
-0.121, -1.197e-7
-0.122, -1.166e-7
-0.123, -1.197e-7
-0.124, -1.197e-7
-0.125, -1.197e-7
-0.126, -1.197e-7
-0.127, -1.197e-7
-0.128, -1.197e-7
-0.129, -1.197e-7
-0.130, -1.197e-7
-0.131, -1.197e-7
-0.132, -1.227e-7
-0.133, -1.227e-7
-0.134, -1.227e-7
-0.135, -1.227e-7
-0.136, -1.227e-7
-0.137, -1.227e-7
-0.138, -1.227e-7
-0.139, -1.197e-7
-0.140, -1.227e-7
-0.141, -1.227e-7
-0.142, -1.258e-7
-0.143, -1.227e-7
-0.144, -1.258e-7
-0.145, -1.258e-7
-0.146, -1.258e-7
-0.147, -1.258e-7
-0.148, -1.258e-7
-0.149, -1.227e-7
-0.150, -1.258e-7
-0.151, -1.258e-7
-0.152, -1.258e-7
-0.153, -1.258e-7
-0.154, -1.289e-7
-0.155, -1.289e-7
-0.156, -1.289e-7
-0.157, -1.258e-7
-0.158, -1.289e-7
-0.159, -1.258e-7
-0.160, -1.258e-7
-0.161, -1.289e-7
-0.162, -1.289e-7
-0.163, -1.289e-7
-0.164, -1.319e-7
-0.165, -1.319e-7
-0.166, -1.289e-7
-0.167, -1.319e-7
-0.168, -1.319e-7
-0.169, -1.289e-7
-0.170, -1.289e-7
-0.171, -1.319e-7
-0.172, -1.319e-7
-0.173, -1.319e-7
-0.174, -1.350e-7
-0.175, -1.350e-7
-0.176, -1.319e-7
-0.177, -1.319e-7
-0.178, -1.350e-7
-0.179, -1.319e-7
-0.180, -1.319e-7
-0.181, -1.350e-7
-0.182, -1.350e-7
-0.183, -1.350e-7
-0.184, -1.380e-7
-0.185, -1.380e-7
-0.186, -1.350e-7
-0.187, -1.350e-7
-0.188, -1.350e-7
-0.189, -1.350e-7
-0.190, -1.350e-7
-0.191, -1.380e-7
-0.192, -1.380e-7
-0.193, -1.380e-7
-0.194, -1.411e-7
-0.195, -1.411e-7
-0.196, -1.380e-7
-0.197, -1.380e-7
-0.198, -1.380e-7
-0.199, -1.380e-7
-0.200, -1.380e-7
-0.201, -1.411e-7
-0.202, -1.411e-7
-0.203, -1.411e-7
-0.204, -1.442e-7
-0.205, -1.442e-7
-0.206, -1.411e-7
-0.207, -1.411e-7
-0.208, -1.411e-7
-0.209, -1.411e-7
-0.210, -1.411e-7
-0.211, -1.411e-7
-0.212, -1.442e-7
-0.213, -1.442e-7
-0.214, -1.442e-7
-0.215, -1.472e-7
-0.216, -1.442e-7
-0.217, -1.442e-7
-0.218, -1.442e-7
-0.219, -1.411e-7
-0.220, -1.442e-7
-0.221, -1.442e-7
-0.222, -1.442e-7
-0.223, -1.472e-7
-0.224, -1.472e-7
-0.225, -1.472e-7
-0.226, -1.472e-7
-0.227, -1.472e-7
-0.228, -1.472e-7
-0.229, -1.472e-7
-0.230, -1.472e-7
-0.231, -1.472e-7
-0.232, -1.503e-7
-0.233, -1.472e-7
-0.234, -1.503e-7
-0.235, -1.503e-7
-0.236, -1.472e-7
-0.237, -1.472e-7
-0.238, -1.503e-7
-0.239, -1.472e-7
-0.240, -1.472e-7
-0.241, -1.503e-7
-0.242, -1.503e-7
-0.243, -1.503e-7
-0.244, -1.533e-7
-0.245, -1.533e-7
-0.246, -1.533e-7
-0.247, -1.503e-7
-0.248, -1.503e-7
-0.249, -1.503e-7
-0.250, -1.503e-7
-0.251, -1.533e-7
-0.252, -1.533e-7
-0.253, -1.533e-7
-0.254, -1.533e-7
-0.255, -1.564e-7
-0.256, -1.533e-7
-0.257, -1.533e-7
-0.258, -1.533e-7
-0.259, -1.533e-7
-0.260, -1.533e-7
-0.261, -1.564e-7
-0.262, -1.564e-7
-0.263, -1.564e-7
-0.264, -1.564e-7
-0.265, -1.564e-7
-0.266, -1.564e-7
-0.267, -1.564e-7
-0.268, -1.564e-7
-0.269, -1.564e-7
-0.270, -1.564e-7
-0.271, -1.564e-7
-0.272, -1.564e-7
-0.273, -1.564e-7
-0.274, -1.595e-7
-0.275, -1.595e-7
-0.276, -1.595e-7
-0.277, -1.595e-7
-0.278, -1.595e-7
-0.279, -1.564e-7
-0.280, -1.595e-7
-0.281, -1.595e-7
-0.282, -1.625e-7
-0.283, -1.625e-7
-0.284, -1.625e-7
-0.285, -1.625e-7
-0.286, -1.625e-7
-0.287, -1.625e-7
-0.288, -1.625e-7
-0.289, -1.595e-7
-0.290, -1.595e-7
-0.291, -1.625e-7
-0.292, -1.656e-7
-0.293, -1.625e-7
-0.294, -1.656e-7
-0.295, -1.656e-7
-0.296, -1.656e-7
-0.297, -1.656e-7
-0.298, -1.656e-7
-0.299, -1.625e-7
-0.300, -1.656e-7
-0.301, -1.656e-7
-0.302, -1.686e-7
-0.303, -1.686e-7
-0.304, -1.686e-7
-0.305, -1.686e-7
-0.306, -1.686e-7
-0.307, -1.686e-7
-0.308, -1.717e-7
-0.309, -1.686e-7
-0.310, -1.686e-7
-0.311, -1.686e-7
-0.312, -1.686e-7
-0.313, -1.717e-7
-0.314, -1.717e-7
-0.315, -1.717e-7
-0.316, -1.717e-7
-0.317, -1.717e-7
-0.318, -1.717e-7
-0.319, -1.717e-7
-0.320, -1.717e-7
-0.321, -1.717e-7
-0.322, -1.748e-7
-0.323, -1.748e-7
-0.324, -1.748e-7
-0.325, -1.778e-7
-0.326, -1.748e-7
-0.327, -1.748e-7
-0.328, -1.748e-7
-0.329, -1.748e-7
-0.330, -1.748e-7
-0.331, -1.778e-7
-0.332, -1.778e-7
-0.333, -1.778e-7
-0.334, -1.809e-7
-0.335, -1.809e-7
-0.336, -1.809e-7
-0.337, -1.809e-7
-0.338, -1.809e-7
-0.339, -1.778e-7
-0.340, -1.778e-7
-0.341, -1.778e-7
-0.342, -1.809e-7
-0.343, -1.809e-7
-0.344, -1.839e-7
-0.345, -1.839e-7
-0.346, -1.839e-7
-0.347, -1.809e-7
-0.348, -1.839e-7
-0.349, -1.839e-7
-0.350, -1.839e-7
-0.351, -1.870e-7
-0.352, -1.839e-7
-0.353, -1.870e-7
-0.354, -1.870e-7
-0.355, -1.901e-7
-0.356, -1.870e-7
-0.357, -1.870e-7
-0.358, -1.870e-7
-0.359, -1.870e-7
-0.360, -1.870e-7
-0.361, -1.901e-7
-0.362, -1.931e-7
-0.363, -1.931e-7
-0.364, -1.931e-7
-0.365, -1.931e-7
-0.366, -1.931e-7
-0.367, -1.931e-7
-0.368, -1.931e-7
-0.369, -1.931e-7
-0.370, -1.931e-7
-0.371, -1.962e-7
-0.372, -1.962e-7
-0.373, -1.962e-7
-0.374, -1.992e-7
-0.375, -1.992e-7
-0.376, -1.992e-7
-0.377, -1.992e-7
-0.378, -1.992e-7
-0.379, -1.962e-7
-0.380, -1.992e-7
-0.381, -1.992e-7
-0.382, -2.023e-7
-0.383, -2.023e-7
-0.384, -2.023e-7
-0.385, -2.054e-7
-0.386, -2.054e-7
-0.387, -2.023e-7
-0.388, -2.054e-7
-0.389, -2.023e-7
-0.390, -2.054e-7
-0.391, -2.084e-7
-0.392, -2.084e-7
-0.393, -2.084e-7
-0.394, -2.115e-7
-0.395, -2.115e-7
-0.396, -2.115e-7
-0.397, -2.084e-7
-0.398, -2.084e-7
-0.399, -2.115e-7
-0.400, -2.115e-7
-0.401, -2.115e-7
-0.402, -2.146e-7
-0.403, -2.146e-7
-0.404, -2.146e-7
-0.405, -2.176e-7
-0.406, -2.176e-7
-0.407, -2.176e-7
-0.408, -2.207e-7
-0.409, -2.176e-7
-0.410, -2.146e-7
-0.411, -2.207e-7
-0.412, -2.207e-7
-0.413, -2.237e-7
-0.414, -2.237e-7
-0.415, -2.237e-7
-0.416, -2.237e-7
-0.417, -2.268e-7
-0.418, -2.268e-7
-0.419, -2.237e-7
-0.420, -2.268e-7
-0.421, -2.268e-7
-0.422, -2.299e-7
-0.423, -2.299e-7
-0.424, -2.329e-7
-0.425, -2.329e-7
-0.426, -2.329e-7
-0.427, -2.360e-7
-0.428, -2.360e-7
-0.429, -2.329e-7
-0.430, -2.360e-7
-0.431, -2.390e-7
-0.432, -2.390e-7
-0.433, -2.421e-7
-0.434, -2.421e-7
-0.435, -2.452e-7
-0.436, -2.452e-7
-0.437, -2.452e-7
-0.438, -2.452e-7
-0.439, -2.452e-7
-0.440, -2.452e-7
-0.441, -2.482e-7
-0.442, -2.513e-7
-0.443, -2.513e-7
-0.444, -2.513e-7
-0.445, -2.543e-7
-0.446, -2.543e-7
-0.447, -2.543e-7
-0.448, -2.543e-7
-0.449, -2.543e-7
-0.450, -2.574e-7
-0.451, -2.605e-7
-0.452, -2.605e-7
-0.453, -2.635e-7
-0.454, -2.635e-7
-0.455, -2.666e-7
-0.456, -2.666e-7
-0.457, -2.666e-7
-0.458, -2.696e-7
-0.459, -2.696e-7
-0.460, -2.696e-7
-0.461, -2.727e-7
-0.462, -2.758e-7
-0.463, -2.758e-7
-0.464, -2.788e-7
-0.465, -2.788e-7
-0.466, -2.788e-7
-0.467, -2.819e-7
-0.468, -2.819e-7
-0.469, -2.819e-7
-0.470, -2.850e-7
-0.471, -2.880e-7
-0.472, -2.880e-7
-0.473, -2.911e-7
-0.474, -2.911e-7
-0.475, -2.941e-7
-0.476, -2.941e-7
-0.477, -2.941e-7
-0.478, -2.972e-7
-0.479, -2.972e-7
-0.480, -2.972e-7
-0.481, -3.003e-7
-0.482, -3.033e-7
-0.483, -3.064e-7
-0.484, -3.094e-7
-0.485, -3.094e-7
-0.486, -3.094e-7
-0.487, -3.156e-7
-0.488, -3.156e-7
-0.489, -3.156e-7
-0.490, -3.156e-7
-0.491, -3.186e-7
-0.492, -3.217e-7
-0.493, -3.247e-7
-0.494, -3.247e-7
-0.495, -3.278e-7
-0.496, -3.309e-7
-0.497, -3.309e-7
-0.498, -3.339e-7
-0.499, -3.339e-7
-0.500, -3.339e-7
-0.501, -3.400e-7
-0.502, -3.400e-7
-0.503, -3.431e-7
-0.504, -3.462e-7
-0.505, -3.492e-7
-0.506, -3.492e-7
-0.507, -3.523e-7
-0.508, -3.523e-7
-0.509, -3.554e-7
-0.510, -3.554e-7
-0.511, -3.584e-7
-0.512, -3.615e-7
-0.513, -3.645e-7
-0.514, -3.676e-7
-0.515, -3.707e-7
-0.516, -3.707e-7
-0.517, -3.707e-7
-0.518, -3.737e-7
-0.519, -3.768e-7
-0.520, -3.768e-7
-0.521, -3.829e-7
-0.522, -3.860e-7
-0.523, -3.860e-7
-0.524, -3.890e-7
-0.525, -3.921e-7
-0.526, -3.951e-7
-0.527, -3.982e-7
-0.528, -3.982e-7
-0.529, -3.982e-7
-0.530, -4.013e-7
-0.531, -4.043e-7
-0.532, -4.104e-7
-0.533, -4.135e-7
-0.534, -4.166e-7
-0.535, -4.196e-7
-0.536, -4.196e-7
-0.537, -4.227e-7
-0.538, -4.257e-7
-0.539, -4.288e-7
-0.540, -4.288e-7
-0.541, -4.349e-7
-0.542, -4.380e-7
-0.543, -4.411e-7
-0.544, -4.441e-7
-0.545, -4.472e-7
-0.546, -4.502e-7
-0.547, -4.533e-7
-0.548, -4.533e-7
-0.549, -4.564e-7
-0.550, -4.594e-7
-0.551, -4.625e-7
-0.552, -4.686e-7
-0.553, -4.717e-7
-0.554, -4.747e-7
-0.555, -4.778e-7
-0.556, -4.808e-7
-0.557, -4.839e-7
-0.558, -4.870e-7
-0.559, -4.900e-7
-0.560, -4.900e-7
-0.561, -4.961e-7
-0.562, -5.023e-7
-0.563, -5.053e-7
-0.564, -5.084e-7
-0.565, -5.115e-7
-0.566, -5.145e-7
-0.567, -5.176e-7
-0.568, -5.206e-7
-0.569, -5.237e-7
-0.570, -5.268e-7
-0.571, -5.298e-7
-0.572, -5.359e-7
-0.573, -5.390e-7
-0.574, -5.421e-7
-0.575, -5.482e-7
-0.576, -5.482e-7
-0.577, -5.512e-7
-0.578, -5.543e-7
-0.579, -5.574e-7
-0.580, -5.604e-7
-0.581, -5.665e-7
-0.582, -5.696e-7
-0.583, -5.727e-7
-0.584, -5.757e-7
-0.585, -5.788e-7
-0.586, -5.818e-7
-0.587, -5.849e-7
-0.588, -5.880e-7
-0.589, -5.910e-7
-0.590, -5.910e-7
-0.591, -5.941e-7
-0.592, -6.002e-7
-0.593, -6.033e-7
-0.594, -6.063e-7
-0.595, -6.094e-7
-0.596, -6.125e-7
-0.597, -6.125e-7
-0.598, -6.155e-7
-0.599, -6.155e-7
-0.600, -6.186e-7
-0.601, -6.216e-7
-0.602, -6.247e-7
-0.603, -6.308e-7
-0.604, -6.308e-7
-0.605, -6.369e-7
-0.606, -6.369e-7
-0.607, -6.369e-7
-0.608, -6.400e-7
-0.609, -6.400e-7
-0.610, -6.431e-7
-0.611, -6.461e-7
-0.612, -6.492e-7
-0.613, -6.522e-7
-0.614, -6.553e-7
-0.615, -6.614e-7
-0.616, -6.584e-7
-0.617, -6.614e-7
-0.618, -6.614e-7
-0.619, -6.645e-7
-0.620, -6.645e-7
-0.621, -6.706e-7
-0.622, -6.737e-7
-0.623, -6.767e-7
-0.624, -6.767e-7
-0.625, -6.829e-7
-0.626, -6.829e-7
-0.627, -6.829e-7
-0.628, -6.859e-7
-0.629, -6.890e-7
-0.630, -6.890e-7
-0.631, -6.951e-7
-0.632, -6.982e-7
-0.633, -7.012e-7
-0.634, -7.043e-7
-0.635, -7.073e-7
-0.636, -7.073e-7
-0.637, -7.104e-7
-0.638, -7.135e-7
-0.639, -7.135e-7
-0.640, -7.165e-7
-0.641, -7.226e-7
-0.642, -7.226e-7
-0.643, -7.288e-7
-0.644, -7.318e-7
-0.645, -7.349e-7
-0.646, -7.349e-7
-0.647, -7.380e-7
-0.648, -7.380e-7
-0.649, -7.410e-7
-0.650, -7.441e-7
-0.651, -7.502e-7
-0.652, -7.533e-7
-0.653, -7.533e-7
-0.654, -7.563e-7
-0.655, -7.594e-7
-0.656, -7.624e-7
-0.657, -7.655e-7
-0.658, -7.655e-7
-0.659, -7.686e-7
-0.660, -7.686e-7
-0.661, -7.747e-7
-0.662, -7.777e-7
-0.663, -7.808e-7
-0.664, -7.839e-7
-0.665, -7.869e-7
-0.666, -7.900e-7
-0.667, -7.900e-7
-0.668, -7.900e-7
-0.669, -7.930e-7
-0.670, -7.930e-7
-0.671, -7.961e-7
-0.672, -7.992e-7
-0.673, -8.022e-7
-0.674, -8.053e-7
-0.675, -8.083e-7
-0.676, -8.083e-7
-0.677, -8.083e-7
-0.678, -8.114e-7
-0.679, -8.114e-7
-0.680, -8.145e-7
-0.681, -8.175e-7
-0.682, -8.175e-7
-0.683, -8.206e-7
-0.684, -8.206e-7
-0.685, -8.237e-7
-0.686, -8.267e-7
-0.687, -8.237e-7
-0.688, -8.267e-7
-0.689, -8.267e-7
-0.690, -8.267e-7
-0.691, -8.298e-7
-0.692, -8.328e-7
-0.693, -8.328e-7
-0.694, -8.328e-7
-0.695, -8.359e-7
-0.696, -8.359e-7
-0.697, -8.359e-7
-0.698, -8.359e-7
-0.699, -8.359e-7
-0.700, -8.359e-7
-0.701, -8.359e-7
-0.702, -8.390e-7
-0.703, -8.390e-7
-0.704, -8.390e-7
-0.705, -8.420e-7
-0.706, -8.390e-7
-0.707, -8.390e-7
-0.708, -8.420e-7
-0.709, -8.390e-7
-0.710, -8.390e-7
-0.711, -8.420e-7
-0.712, -8.420e-7
-0.713, -8.390e-7
-0.714, -8.420e-7
-0.715, -8.420e-7
-0.716, -8.420e-7
-0.717, -8.420e-7
-0.718, -8.390e-7
-0.719, -8.390e-7
-0.720, -8.390e-7
-0.721, -8.390e-7
-0.722, -8.390e-7
-0.723, -8.390e-7
-0.724, -8.390e-7
-0.725, -8.390e-7
-0.726, -8.359e-7
-0.727, -8.359e-7
-0.728, -8.359e-7
-0.729, -8.328e-7
-0.730, -8.328e-7
-0.731, -8.328e-7
-0.732, -8.328e-7
-0.733, -8.328e-7
-0.734, -8.328e-7
-0.735, -8.328e-7
-0.736, -8.298e-7
-0.737, -8.298e-7
-0.738, -8.267e-7
-0.739, -8.267e-7
-0.740, -8.237e-7
-0.741, -8.267e-7
-0.742, -8.267e-7
-0.743, -8.267e-7
-0.744, -8.237e-7
-0.745, -8.237e-7
-0.746, -8.206e-7
-0.747, -8.206e-7
-0.748, -8.206e-7
-0.749, -8.175e-7
-0.750, -8.175e-7
-0.751, -8.175e-7
-0.752, -8.145e-7
-0.753, -8.145e-7
-0.754, -8.145e-7
-0.755, -8.145e-7
-0.756, -8.114e-7
-0.757, -8.114e-7
-0.758, -8.083e-7
-0.759, -8.083e-7
-0.760, -8.053e-7
-0.761, -8.083e-7
-0.762, -8.053e-7
-0.763, -8.053e-7
-0.764, -8.053e-7
-0.765, -8.053e-7
-0.766, -8.022e-7
-0.767, -7.992e-7
-0.768, -7.992e-7
-0.769, -7.961e-7
-0.770, -7.961e-7
-0.771, -7.961e-7
-0.772, -7.930e-7
-0.773, -7.930e-7
-0.774, -7.930e-7
-0.775, -7.930e-7
-0.776, -7.900e-7
-0.777, -7.869e-7
-0.778, -7.869e-7
-0.779, -7.869e-7
-0.780, -7.839e-7
-0.781, -7.839e-7
-0.782, -7.869e-7
-0.783, -7.839e-7
-0.784, -7.839e-7
-0.785, -7.839e-7
-0.786, -7.808e-7
-0.787, -7.777e-7
-0.788, -7.777e-7
-0.789, -7.747e-7
-0.790, -7.747e-7
-0.791, -7.747e-7
-0.792, -7.747e-7
-0.793, -7.747e-7
-0.794, -7.747e-7
-0.795, -7.716e-7
-0.796, -7.716e-7
-0.797, -7.686e-7
-0.798, -7.686e-7
-0.799, -7.655e-7
-0.800, -7.624e-7
-0.801, -7.655e-7
-0.802, -7.624e-7
-0.803, -7.624e-7
-0.804, -7.624e-7
-0.805, -7.624e-7
-0.806, -7.594e-7
-0.807, -7.594e-7
-0.808, -7.594e-7
-0.809, -7.563e-7
-0.810, -7.563e-7
-0.811, -7.533e-7
-0.812, -7.563e-7
-0.813, -7.533e-7
-0.814, -7.533e-7
-0.815, -7.533e-7
-0.816, -7.533e-7
-0.817, -7.502e-7
-0.818, -7.502e-7
-0.819, -7.471e-7
-0.820, -7.441e-7
-0.821, -7.471e-7
-0.822, -7.441e-7
-0.823, -7.441e-7
-0.824, -7.441e-7
-0.825, -7.441e-7
-0.826, -7.441e-7
-0.827, -7.410e-7
-0.828, -7.410e-7
-0.829, -7.410e-7
-0.830, -7.380e-7
-0.831, -7.380e-7
-0.832, -7.380e-7
-0.833, -7.380e-7
-0.834, -7.380e-7
-0.835, -7.380e-7
-0.836, -7.349e-7
-0.837, -7.349e-7
-0.838, -7.349e-7
-0.839, -7.318e-7
-0.840, -7.288e-7
-0.841, -7.318e-7
-0.842, -7.318e-7
-0.843, -7.318e-7
-0.844, -7.318e-7
-0.845, -7.318e-7
-0.846, -7.288e-7
-0.847, -7.288e-7
-0.848, -7.257e-7
-0.849, -7.257e-7
-0.850, -7.226e-7
-0.851, -7.226e-7
-0.852, -7.257e-7
-0.853, -7.226e-7
-0.854, -7.226e-7
-0.855, -7.257e-7
-0.856, -7.226e-7
-0.857, -7.196e-7
-0.858, -7.196e-7
-0.859, -7.196e-7
-0.860, -7.165e-7
-0.861, -7.196e-7
-0.862, -7.165e-7
-0.863, -7.165e-7
-0.864, -7.196e-7
-0.865, -7.165e-7
-0.866, -7.165e-7
-0.867, -7.135e-7
-0.868, -7.135e-7
-0.869, -7.135e-7
-0.870, -7.104e-7
-0.871, -7.135e-7
-0.872, -7.135e-7
-0.873, -7.104e-7
-0.874, -7.104e-7
-0.875, -7.135e-7
-0.876, -7.104e-7
-0.877, -7.104e-7
-0.878, -7.073e-7
-0.879, -7.073e-7
-0.880, -7.073e-7
-0.881, -7.073e-7
-0.882, -7.073e-7
-0.883, -7.073e-7
-0.884, -7.073e-7
-0.885, -7.073e-7
-0.886, -7.073e-7
-0.887, -7.043e-7
-0.888, -7.043e-7
-0.889, -7.043e-7
-0.890, -7.012e-7
-0.891, -7.012e-7
-0.892, -7.043e-7
-0.893, -7.012e-7
-0.894, -7.012e-7
-0.895, -7.043e-7
-0.896, -7.012e-7
-0.897, -7.012e-7
-0.898, -6.982e-7
-0.899, -6.982e-7
-0.900, -6.982e-7
-0.901, -6.982e-7
-0.902, -6.982e-7
-0.903, -6.982e-7
-0.904, -6.982e-7
-0.905, -6.982e-7
-0.906, -6.982e-7
-0.907, -6.951e-7
-0.908, -6.951e-7
-0.909, -6.951e-7
-0.910, -6.951e-7
-0.911, -6.951e-7
-0.912, -6.951e-7
-0.913, -6.951e-7
-0.914, -6.951e-7
-0.915, -6.951e-7
-0.916, -6.951e-7
-0.917, -6.920e-7
-0.918, -6.920e-7
-0.919, -6.920e-7
-0.920, -6.920e-7
-0.921, -6.920e-7
-0.922, -6.920e-7
-0.923, -6.920e-7
-0.924, -6.920e-7
-0.925, -6.920e-7
-0.926, -6.920e-7
-0.927, -6.890e-7
-0.928, -6.890e-7
-0.929, -6.890e-7
-0.930, -6.890e-7
-0.931, -6.890e-7
-0.932, -6.890e-7
-0.933, -6.890e-7
-0.934, -6.890e-7
-0.935, -6.890e-7
-0.936, -6.890e-7
-0.937, -6.859e-7
-0.938, -6.859e-7
-0.939, -6.859e-7
-0.940, -6.859e-7
-0.941, -6.859e-7
-0.942, -6.859e-7
-0.943, -6.859e-7
-0.944, -6.859e-7
-0.945, -6.859e-7
-0.946, -6.859e-7
-0.947, -6.859e-7
-0.948, -6.859e-7
-0.949, -6.829e-7
-0.950, -6.829e-7
-0.951, -6.829e-7
-0.952, -6.859e-7
-0.953, -6.829e-7
-0.954, -6.829e-7
-0.955, -6.859e-7
-0.956, -6.829e-7
-0.957, -6.829e-7
-0.958, -6.829e-7
-0.959, -6.829e-7
-0.960, -6.798e-7
-0.961, -6.829e-7
-0.962, -6.829e-7
-0.963, -6.829e-7
-0.964, -6.829e-7
-0.965, -6.829e-7
-0.966, -6.829e-7
-0.967, -6.798e-7
-0.968, -6.798e-7
-0.969, -6.798e-7
-0.970, -6.767e-7
-0.971, -6.798e-7
-0.972, -6.798e-7
-0.973, -6.798e-7
-0.974, -6.829e-7
-0.975, -6.829e-7
-0.976, -6.798e-7
-0.977, -6.798e-7
-0.978, -6.767e-7
-0.979, -6.767e-7
-0.980, -6.767e-7
-0.981, -6.767e-7
-0.982, -6.798e-7
-0.983, -6.798e-7
-0.984, -6.798e-7
-0.985, -6.798e-7
-0.986, -6.767e-7
-0.987, -6.767e-7
-0.988, -6.767e-7
-0.989, -6.767e-7
-0.990, -6.737e-7
-0.991, -6.767e-7
-0.992, -6.767e-7
-0.993, -6.767e-7
-0.994, -6.767e-7
-0.995, -6.767e-7
-0.996, -6.767e-7
-0.997, -6.767e-7
-0.998, -6.767e-7
-0.999, -6.767e-7
-1.000, -6.737e-7
-1.001, -6.767e-7
-1.002, -6.767e-7
-1.003, -6.767e-7
-1.004, -6.767e-7
-1.005, -6.767e-7
-1.006, -6.767e-7
-1.007, -6.737e-7
-1.008, -6.737e-7
-1.009, -6.737e-7
-1.010, -6.737e-7
-1.011, -6.737e-7
-1.012, -6.737e-7
-1.013, -6.737e-7
-1.014, -6.767e-7
-1.015, -6.767e-7
-1.016, -6.737e-7
-1.017, -6.737e-7
-1.018, -6.737e-7
-1.019, -6.737e-7
-1.020, -6.737e-7
-1.021, -6.737e-7
-1.022, -6.737e-7
-1.023, -6.737e-7
-1.024, -6.767e-7
-1.025, -6.767e-7
-1.026, -6.737e-7
-1.027, -6.706e-7
-1.028, -6.737e-7
-1.029, -6.706e-7
-1.030, -6.706e-7
-1.031, -6.706e-7
-1.032, -6.737e-7
-1.033, -6.737e-7
-1.034, -6.737e-7
-1.035, -6.737e-7
-1.036, -6.737e-7
-1.037, -6.706e-7
-1.038, -6.706e-7
-1.039, -6.706e-7
-1.040, -6.706e-7
-1.041, -6.706e-7
-1.042, -6.737e-7
-1.043, -6.706e-7
-1.044, -6.706e-7
-1.045, -6.737e-7
-1.046, -6.706e-7
-1.047, -6.706e-7
-1.048, -6.706e-7
-1.049, -6.706e-7
-1.050, -6.676e-7
-1.051, -6.706e-7
-1.052, -6.706e-7
-1.053, -6.706e-7
-1.054, -6.706e-7
-1.055, -6.706e-7
-1.056, -6.706e-7
-1.057, -6.706e-7
-1.058, -6.676e-7
-1.059, -6.706e-7
-1.060, -6.676e-7
-1.061, -6.676e-7
-1.062, -6.706e-7
-1.063, -6.706e-7
-1.064, -6.706e-7
-1.065, -6.737e-7
-1.066, -6.706e-7
-1.067, -6.676e-7
-1.068, -6.676e-7
-1.069, -6.676e-7
-1.070, -6.676e-7
-1.071, -6.706e-7
-1.072, -6.676e-7
-1.073, -6.706e-7
-1.074, -6.706e-7
-1.075, -6.706e-7
-1.076, -6.706e-7
-1.077, -6.676e-7
-1.078, -6.676e-7
-1.079, -6.676e-7
-1.080, -6.676e-7
-1.081, -6.676e-7
-1.082, -6.706e-7
-1.083, -6.706e-7
-1.084, -6.676e-7
-1.085, -6.706e-7
-1.086, -6.706e-7
-1.087, -6.676e-7
-1.088, -6.676e-7
-1.089, -6.676e-7
-1.090, -6.676e-7
-1.091, -6.676e-7
-1.092, -6.676e-7
-1.093, -6.676e-7
-1.094, -6.676e-7
-1.095, -6.676e-7
-1.096, -6.676e-7
-1.097, -6.676e-7
-1.098, -6.676e-7
-1.099, -6.676e-7
-1.100, -6.676e-7
-1.101, -6.676e-7
-1.102, -6.676e-7
-1.103, -6.676e-7
-1.104, -6.676e-7
-1.105, -6.706e-7
-1.106, -6.676e-7
-1.107, -6.676e-7
-1.108, -6.676e-7
-1.109, -6.645e-7
-1.110, -6.676e-7
-1.111, -6.676e-7
-1.112, -6.645e-7
-1.113, -6.676e-7
-1.114, -6.676e-7
-1.115, -6.676e-7
-1.116, -6.676e-7
-1.117, -6.676e-7
-1.118, -6.645e-7
-1.119, -6.676e-7
-1.120, -6.645e-7
-1.121, -6.676e-7
-1.122, -6.676e-7
-1.123, -6.676e-7
-1.124, -6.676e-7
-1.125, -6.706e-7
-1.126, -6.676e-7
-1.127, -6.676e-7
-1.128, -6.645e-7
-1.129, -6.676e-7
-1.130, -6.645e-7
-1.131, -6.676e-7
-1.132, -6.676e-7
-1.133, -6.676e-7
-1.134, -6.645e-7
-1.135, -6.676e-7
-1.136, -6.676e-7
-1.137, -6.645e-7
-1.138, -6.676e-7
-1.139, -6.645e-7
-1.140, -6.645e-7
-1.141, -6.676e-7
-1.142, -6.676e-7
-1.143, -6.645e-7
-1.144, -6.676e-7
-1.145, -6.676e-7
-1.146, -6.676e-7
-1.147, -6.645e-7
-1.148, -6.676e-7
-1.149, -6.645e-7
-1.150, -6.645e-7
-1.151, -6.645e-7
-1.152, -6.676e-7
-1.153, -6.676e-7
-1.154, -6.676e-7
-1.155, -6.676e-7
-1.156, -6.676e-7
-1.157, -6.645e-7
-1.158, -6.645e-7
-1.159, -6.676e-7
-1.160, -6.645e-7
-1.161, -6.676e-7
-1.162, -6.676e-7
-1.163, -6.676e-7
-1.164, -6.676e-7
-1.165, -6.676e-7
-1.166, -6.676e-7
-1.167, -6.676e-7
-1.168, -6.645e-7
-1.169, -6.676e-7
-1.170, -6.645e-7
-1.171, -6.645e-7
-1.172, -6.676e-7
-1.173, -6.676e-7
-1.174, -6.676e-7
-1.175, -6.676e-7
-1.176, -6.676e-7
-1.177, -6.676e-7
-1.178, -6.676e-7
-1.179, -6.676e-7
-1.180, -6.645e-7
-1.181, -6.676e-7
-1.182, -6.676e-7
-1.183, -6.676e-7
-1.184, -6.676e-7
-1.185, -6.706e-7
-1.186, -6.676e-7
-1.187, -6.676e-7
-1.188, -6.676e-7
-1.189, -6.676e-7
-1.190, -6.676e-7
-1.191, -6.676e-7
-1.192, -6.676e-7
-1.193, -6.706e-7
-1.194, -6.706e-7
-1.195, -6.706e-7
-1.196, -6.706e-7
-1.197, -6.676e-7
-1.198, -6.706e-7
-1.199, -6.676e-7
-1.200, -6.676e-7
-1.201, -6.706e-7
-1.202, -6.706e-7
-1.203, -6.706e-7
-1.204, -6.706e-7
-1.205, -6.737e-7
-1.206, -6.706e-7
-1.207, -6.706e-7
-1.208, -6.706e-7
-1.209, -6.706e-7
-1.210, -6.706e-7
-1.211, -6.706e-7
-1.212, -6.706e-7
-1.213, -6.737e-7
-1.214, -6.737e-7
-1.215, -6.737e-7
-1.216, -6.737e-7
-1.217, -6.737e-7
-1.218, -6.737e-7
-1.219, -6.737e-7
-1.220, -6.706e-7
-1.221, -6.737e-7
-1.222, -6.737e-7
-1.223, -6.737e-7
-1.224, -6.737e-7
-1.225, -6.767e-7
-1.226, -6.767e-7
-1.227, -6.767e-7
-1.228, -6.737e-7
-1.229, -6.706e-7
-1.230, -6.737e-7
-1.231, -6.737e-7
-1.232, -6.767e-7
-1.233, -6.767e-7
-1.234, -6.767e-7
-1.235, -6.798e-7
-1.236, -6.767e-7
-1.237, -6.767e-7
-1.238, -6.767e-7
-1.239, -6.767e-7
-1.240, -6.767e-7
-1.241, -6.798e-7
-1.242, -6.798e-7
-1.243, -6.798e-7
-1.244, -6.798e-7
-1.245, -6.829e-7
-1.246, -6.798e-7
-1.247, -6.798e-7
-1.248, -6.798e-7
-1.249, -6.829e-7
-1.250, -6.798e-7
-1.251, -6.829e-7
-1.252, -6.829e-7
-1.253, -6.829e-7
-1.254, -6.829e-7
-1.255, -6.859e-7
-1.256, -6.829e-7
-1.257, -6.829e-7
-1.258, -6.829e-7
-1.259, -6.859e-7
-1.260, -6.829e-7
-1.261, -6.859e-7
-1.262, -6.859e-7
-1.263, -6.859e-7
-1.264, -6.890e-7
-1.265, -6.890e-7
-1.266, -6.890e-7
-1.267, -6.890e-7
-1.268, -6.859e-7
-1.269, -6.890e-7
-1.270, -6.859e-7
-1.271, -6.890e-7
-1.272, -6.920e-7
-1.273, -6.920e-7
-1.274, -6.920e-7
-1.275, -6.920e-7
-1.276, -6.920e-7
-1.277, -6.920e-7
-1.278, -6.920e-7
-1.279, -6.920e-7
-1.280, -6.920e-7
-1.281, -6.920e-7
-1.282, -6.951e-7
-1.283, -6.951e-7
-1.284, -6.951e-7
-1.285, -6.982e-7
-1.286, -6.951e-7
-1.287, -6.951e-7
-1.288, -6.951e-7
-1.289, -6.982e-7
-1.290, -6.951e-7
-1.291, -6.982e-7
-1.292, -6.982e-7
-1.293, -6.982e-7
-1.294, -7.012e-7
-1.295, -7.012e-7
-1.296, -7.012e-7
-1.297, -7.012e-7
-1.298, -7.012e-7
-1.299, -7.012e-7
-1.300, -7.012e-7
-1.301, -7.012e-7
-1.302, -7.043e-7
-1.303, -7.043e-7
-1.304, -7.043e-7
-1.305, -7.073e-7
-1.306, -7.073e-7
-1.307, -7.073e-7
-1.308, -7.073e-7
-1.309, -7.104e-7
-1.310, -7.073e-7
-1.311, -7.073e-7
-1.312, -7.104e-7
-1.313, -7.104e-7
-1.314, -7.104e-7
-1.315, -7.135e-7
-1.316, -7.135e-7
-1.317, -7.135e-7
-1.318, -7.135e-7
-1.319, -7.135e-7
-1.320, -7.135e-7
-1.321, -7.135e-7
-1.322, -7.165e-7
-1.323, -7.165e-7
-1.324, -7.165e-7
-1.325, -7.196e-7
-1.326, -7.196e-7
-1.327, -7.196e-7
-1.328, -7.196e-7
-1.329, -7.196e-7
-1.330, -7.196e-7
-1.331, -7.226e-7
-1.332, -7.257e-7
-1.333, -7.257e-7
-1.334, -7.257e-7
-1.335, -7.288e-7
-1.336, -7.257e-7
-1.337, -7.288e-7
-1.338, -7.257e-7
-1.339, -7.288e-7
-1.340, -7.288e-7
-1.341, -7.318e-7
-1.342, -7.318e-7
-1.343, -7.349e-7
-1.344, -7.349e-7
-1.345, -7.349e-7
-1.346, -7.380e-7
-1.347, -7.380e-7
-1.348, -7.380e-7
-1.349, -7.380e-7
-1.350, -7.380e-7
-1.351, -7.410e-7
-1.352, -7.441e-7
-1.353, -7.441e-7
-1.354, -7.471e-7
-1.355, -7.502e-7
-1.356, -7.502e-7
-1.357, -7.502e-7
-1.358, -7.502e-7
-1.359, -7.533e-7
-1.360, -7.533e-7
-1.361, -7.563e-7
-1.362, -7.563e-7
-1.363, -7.594e-7
-1.364, -7.624e-7
-1.365, -7.655e-7
-1.366, -7.686e-7
-1.367, -7.686e-7
-1.368, -7.686e-7
-1.369, -7.747e-7
-1.370, -7.716e-7
-1.371, -7.747e-7
-1.372, -7.808e-7
-1.373, -7.839e-7
-1.374, -7.839e-7
-1.375, -7.900e-7
-1.376, -7.900e-7
-1.377, -7.930e-7
-1.378, -7.961e-7
-1.379, -7.992e-7
-1.380, -8.022e-7
-1.381, -8.053e-7
-1.382, -8.114e-7
-1.383, -8.175e-7
-1.384, -8.175e-7
-1.385, -8.237e-7
-1.386, -8.298e-7
-1.387, -8.328e-7
-1.388, -8.359e-7
-1.389, -8.420e-7
-1.390, -8.451e-7
-1.391, -8.512e-7
-1.392, -8.573e-7
-1.393, -8.634e-7
-1.394, -8.696e-7
-1.395, -8.787e-7
-1.396, -8.818e-7
-1.397, -8.879e-7
-1.398, -8.941e-7
-1.399, -9.032e-7
-1.400, -9.094e-7
-1.401, -9.155e-7
-1.402, -9.247e-7
-1.403, -9.338e-7
-1.404, -9.430e-7
-1.405, -9.553e-7
-1.406, -9.644e-7
-1.407, -9.706e-7
-1.408, -9.828e-7
-1.409, -9.920e-7
-1.410, -1.001e-6
-1.411, -1.013e-6
-1.412, -1.026e-6
-1.413, -1.038e-6
-1.414, -1.053e-6
-1.415, -1.069e-6
-1.416, -1.081e-6
-1.417, -1.096e-6
-1.418, -1.108e-6
-1.419, -1.127e-6
-1.420, -1.139e-6
-1.421, -1.154e-6
-1.422, -1.173e-6
-1.423, -1.191e-6
-1.424, -1.209e-6
-1.425, -1.234e-6
-1.426, -1.252e-6
-1.427, -1.271e-6
-1.428, -1.292e-6
-1.429, -1.313e-6
-1.430, -1.335e-6
-1.431, -1.359e-6
-1.432, -1.384e-6
-1.433, -1.411e-6
-1.434, -1.442e-6
-1.435, -1.473e-6
-1.436, -1.500e-6
-1.437, -1.531e-6
-1.438, -1.558e-6
-1.439, -1.589e-6
-1.440, -1.619e-6
-1.441, -1.653e-6
-1.442, -1.687e-6
-1.443, -1.724e-6
-1.444, -1.760e-6
-1.445, -1.800e-6
-1.446, -1.843e-6
-1.447, -1.880e-6
-1.448, -1.919e-6
-1.449, -1.968e-6
-1.450, -2.008e-6
-1.451, -2.054e-6
-1.452, -2.103e-6
-1.453, -2.149e-6
-1.454, -2.198e-6
-1.455, -2.253e-6
-1.456, -2.311e-6
-1.457, -2.363e-6
-1.458, -2.415e-6
-1.459, -2.480e-6
-1.460, -2.538e-6
-1.461, -2.596e-6
-1.462, -2.660e-6
-1.463, -2.727e-6
-1.464, -2.789e-6
-1.465, -2.865e-6
-1.466, -2.936e-6
-1.467, -3.006e-6
-1.468, -3.076e-6
-1.469, -3.159e-6
-1.470, -3.226e-6
-1.471, -3.303e-6
-1.472, -3.382e-6
-1.473, -3.468e-6
-1.474, -3.551e-6
-1.475, -3.649e-6
-1.476, -3.741e-6
-1.477, -3.826e-6
-1.478, -3.915e-6
-1.479, -4.010e-6
-1.480, -4.105e-6
-1.481, -4.194e-6
-1.482, -4.298e-6
-1.483, -4.411e-6
-1.484, -4.506e-6
-1.485, -4.625e-6
-1.486, -4.745e-6
-1.487, -4.842e-6
-1.488, -4.953e-6
-1.489, -5.075e-6
-1.490, -5.173e-6
-1.491, -5.289e-6
-1.492, -5.406e-6
-1.493, -5.525e-6
-1.494, -5.647e-6
-1.495, -5.773e-6
-1.496, -5.908e-6
-1.497, -6.036e-6
-1.498, -6.153e-6
-1.499, -6.284e-6
-1.500, -6.413e-6
-1.501, -6.535e-6
-1.502, -6.673e-6
-1.503, -6.811e-6
-1.504, -6.933e-6
-1.505, -7.077e-6
-1.506, -7.227e-6
-1.507, -7.355e-6
-1.508, -7.493e-6
-1.509, -7.631e-6
-1.510, -7.766e-6
-1.511, -7.906e-6
-1.512, -8.050e-6
-1.513, -8.185e-6
-1.514, -8.326e-6
-1.515, -8.473e-6
-1.516, -8.616e-6
-1.517, -8.757e-6
-1.518, -8.886e-6
-1.519, -9.027e-6
-1.520, -9.164e-6
-1.521, -9.290e-6
-1.522, -9.428e-6
-1.523, -9.571e-6
-1.524, -9.694e-6
-1.525, -9.825e-6
-1.526, -9.969e-6
-1.527, -1.009e-5
-1.528, -1.022e-5
-1.529, -1.035e-5
-1.530, -1.047e-5
-1.531, -1.058e-5
-1.532, -1.069e-5
-1.533, -1.082e-5
-1.534, -1.093e-5
-1.535, -1.104e-5
-1.536, -1.118e-5
-1.537, -1.130e-5
-1.538, -1.139e-5
-1.539, -1.149e-5
-1.540, -1.159e-5
-1.541, -1.167e-5
-1.542, -1.176e-5
-1.543, -1.185e-5
-1.544, -1.193e-5
-1.545, -1.201e-5
-1.546, -1.210e-5
-1.547, -1.217e-5
-1.548, -1.224e-5
-1.549, -1.231e-5
-1.550, -1.237e-5
-1.551, -1.242e-5
-1.552, -1.247e-5
-1.553, -1.253e-5
-1.554, -1.258e-5
-1.555, -1.262e-5
-1.556, -1.267e-5
-1.557, -1.271e-5
-1.558, -1.274e-5
-1.559, -1.277e-5
-1.560, -1.279e-5
-1.561, -1.279e-5
-1.562, -1.283e-5
-1.563, -1.284e-5
-1.564, -1.285e-5
-1.565, -1.286e-5
-1.566, -1.287e-5
-1.567, -1.286e-5
-1.568, -1.286e-5
-1.569, -1.285e-5
-1.570, -1.284e-5
-1.571, -1.281e-5
-1.572, -1.280e-5
-1.573, -1.279e-5
-1.574, -1.276e-5
-1.575, -1.273e-5
-1.576, -1.271e-5
-1.577, -1.268e-5
-1.578, -1.264e-5
-1.579, -1.261e-5
-1.580, -1.257e-5
-1.581, -1.253e-5
-1.582, -1.249e-5
-1.583, -1.245e-5
-1.584, -1.240e-5
-1.585, -1.236e-5
-1.586, -1.232e-5
-1.587, -1.227e-5
-1.588, -1.223e-5
-1.589, -1.217e-5
-1.590, -1.211e-5
-1.591, -1.205e-5
-1.592, -1.200e-5
-1.593, -1.196e-5
-1.594, -1.189e-5
-1.595, -1.184e-5
-1.596, -1.179e-5
-1.597, -1.172e-5
-1.598, -1.166e-5
-1.599, -1.161e-5
-1.600, -1.155e-5
-1.601, -1.148e-5
-1.602, -1.143e-5
-1.603, -1.137e-5
-1.604, -1.131e-5
-1.605, -1.125e-5
-1.606, -1.120e-5
-1.607, -1.114e-5
-1.608, -1.107e-5
-1.609, -1.102e-5
-1.610, -1.095e-5
-1.611, -1.089e-5
-1.612, -1.084e-5
-1.613, -1.079e-5
-1.614, -1.073e-5
-1.615, -1.067e-5
-1.616, -1.062e-5
-1.617, -1.056e-5
-1.618, -1.050e-5
-1.619, -1.045e-5
-1.620, -1.039e-5
-1.621, -1.033e-5
-1.622, -1.028e-5
-1.623, -1.023e-5
-1.624, -1.017e-5
-1.625, -1.012e-5
-1.626, -1.007e-5
-1.627, -1.002e-5
-1.628, -9.969e-6
-1.629, -9.917e-6
-1.630, -9.865e-6
-1.631, -9.816e-6
-1.632, -9.770e-6
-1.633, -9.721e-6
-1.634, -9.675e-6
-1.635, -9.630e-6
-1.636, -9.584e-6
-1.637, -9.535e-6
-1.638, -9.486e-6
-1.639, -9.437e-6
-1.640, -9.394e-6
-1.641, -9.351e-6
-1.642, -9.311e-6
-1.643, -9.268e-6
-1.644, -9.226e-6
-1.645, -9.189e-6
-1.646, -9.146e-6
-1.647, -9.106e-6
-1.648, -9.063e-6
-1.649, -9.027e-6
-1.650, -8.984e-6
-1.651, -8.947e-6
-1.652, -8.910e-6
-1.653, -8.874e-6
-1.654, -8.837e-6
-1.655, -8.803e-6
-1.656, -8.766e-6
-1.657, -8.730e-6
-1.658, -8.693e-6
-1.659, -8.659e-6
-1.660, -8.623e-6
-1.661, -8.589e-6
-1.662, -8.558e-6
-1.663, -8.525e-6
-1.664, -8.494e-6
-1.665, -8.463e-6
-1.666, -8.430e-6
-1.667, -8.399e-6
-1.668, -8.365e-6
-1.669, -8.335e-6
-1.670, -8.304e-6
-1.671, -8.274e-6
-1.672, -8.246e-6
-1.673, -8.219e-6
-1.674, -8.188e-6
-1.675, -8.163e-6
-1.676, -8.136e-6
-1.677, -8.105e-6
-1.678, -8.078e-6
-1.679, -8.053e-6
-1.680, -8.023e-6
-1.681, -7.998e-6
-1.682, -7.974e-6
-1.683, -7.949e-6
-1.684, -7.922e-6
-1.685, -7.900e-6
-1.686, -7.876e-6
-1.687, -7.848e-6
-1.688, -7.824e-6
-1.689, -7.802e-6
-1.690, -7.778e-6
-1.691, -7.753e-6
-1.692, -7.732e-6
-1.693, -7.710e-6
-1.694, -7.686e-6
-1.695, -7.665e-6
-1.696, -7.646e-6
-1.697, -7.622e-6
-1.698, -7.600e-6
-1.699, -7.579e-6
-1.700, -7.557e-6
-1.701, -7.539e-6
-1.702, -7.521e-6
-1.703, -7.499e-6
-1.704, -7.481e-6
-1.705, -7.459e-6
-1.706, -7.441e-6
-1.707, -7.420e-6
-1.708, -7.401e-6
-1.709, -7.383e-6
-1.710, -7.362e-6
-1.711, -7.346e-6
-1.712, -7.328e-6
-1.713, -7.309e-6
-1.714, -7.291e-6
-1.715, -7.276e-6
-1.716, -7.261e-6
-1.717, -7.239e-6
-1.718, -7.224e-6
-1.719, -7.208e-6
-1.720, -7.190e-6
-1.721, -7.175e-6
-1.722, -7.160e-6
-1.723, -7.144e-6
-1.724, -7.129e-6
-1.725, -7.114e-6
-1.726, -7.098e-6
-1.727, -7.080e-6
-1.728, -7.065e-6
-1.729, -7.052e-6
-1.730, -7.034e-6
-1.731, -7.022e-6
-1.732, -7.006e-6
-1.733, -6.994e-6
-1.734, -6.979e-6
-1.735, -6.964e-6
-1.736, -6.951e-6
-1.737, -6.936e-6
-1.738, -6.924e-6
-1.739, -6.912e-6
-1.740, -6.896e-6
-1.741, -6.887e-6
-1.742, -6.872e-6
-1.743, -6.863e-6
-1.744, -6.850e-6
-1.745, -6.835e-6
-1.746, -6.823e-6
-1.747, -6.811e-6
-1.748, -6.798e-6
-1.749, -6.786e-6
-1.750, -6.774e-6
-1.751, -6.762e-6
-1.752, -6.752e-6
-1.753, -6.740e-6
-1.754, -6.731e-6
-1.755, -6.722e-6
-1.756, -6.710e-6
-1.757, -6.697e-6
-1.758, -6.685e-6
-1.759, -6.676e-6
-1.760, -6.664e-6
-1.761, -6.658e-6
-1.762, -6.645e-6
-1.763, -6.636e-6
-1.764, -6.627e-6
-1.765, -6.618e-6
-1.766, -6.609e-6
-1.767, -6.596e-6
-1.768, -6.587e-6
-1.769, -6.578e-6
-1.770, -6.566e-6
-1.771, -6.560e-6
-1.772, -6.550e-6
-1.773, -6.541e-6
-1.774, -6.532e-6
-1.775, -6.526e-6
-1.776, -6.517e-6
-1.777, -6.508e-6
-1.778, -6.498e-6
-1.779, -6.492e-6
-1.780, -6.483e-6
-1.781, -6.474e-6
-1.782, -6.468e-6
-1.783, -6.462e-6
-1.784, -6.456e-6
-1.785, -6.446e-6
-1.786, -6.440e-6
-1.787, -6.431e-6
-1.788, -6.425e-6
-1.789, -6.419e-6
-1.790, -6.413e-6
-1.791, -6.403e-6
-1.792, -6.397e-6
-1.793, -6.391e-6
-1.794, -6.385e-6
-1.795, -6.379e-6
-1.796, -6.373e-6
-1.797, -6.367e-6
-1.798, -6.361e-6
-1.799, -6.355e-6
-1.800, -6.351e-6
-1.801, -6.345e-6
-1.802, -6.342e-6
-1.803, -6.336e-6
-1.804, -6.330e-6
-1.805, -6.327e-6
-1.806, -6.324e-6
-1.807, -6.318e-6
-1.808, -6.312e-6
-1.809, -6.309e-6
-1.810, -6.302e-6
-1.811, -6.296e-6
-1.812, -6.296e-6
-1.813, -6.290e-6
-1.814, -6.287e-6
-1.815, -6.284e-6
-1.816, -6.281e-6
-1.817, -6.275e-6
-1.818, -6.275e-6
-1.819, -6.272e-6
-1.820, -6.269e-6
-1.821, -6.263e-6
-1.822, -6.263e-6
-1.823, -6.260e-6
-1.824, -6.257e-6
-1.825, -6.257e-6
-1.826, -6.254e-6
-1.827, -6.250e-6
-1.828, -6.247e-6
-1.829, -6.247e-6
-1.830, -6.244e-6
-1.831, -6.244e-6
-1.832, -6.241e-6
-1.833, -6.241e-6
-1.834, -6.241e-6
-1.835, -6.241e-6
-1.836, -6.238e-6
-1.837, -6.238e-6
-1.838, -6.235e-6
-1.839, -6.235e-6
-1.840, -6.235e-6
-1.841, -6.235e-6
-1.842, -6.238e-6
-1.843, -6.241e-6
-1.844, -6.238e-6
-1.845, -6.241e-6
-1.846, -6.241e-6
-1.847, -6.238e-6
-1.848, -6.241e-6
-1.849, -6.241e-6
-1.850, -6.241e-6
-1.851, -6.244e-6
-1.852, -6.247e-6
-1.853, -6.247e-6
-1.854, -6.250e-6
-1.855, -6.254e-6
-1.856, -6.254e-6
-1.857, -6.257e-6
-1.858, -6.260e-6
-1.859, -6.260e-6
-1.860, -6.263e-6
-1.861, -6.266e-6
-1.862, -6.269e-6
-1.863, -6.272e-6
-1.864, -6.278e-6
-1.865, -6.281e-6
-1.866, -6.284e-6
-1.867, -6.287e-6
-1.868, -6.290e-6
-1.869, -6.293e-6
-1.870, -6.299e-6
-1.871, -6.302e-6
-1.872, -6.309e-6
-1.873, -6.315e-6
-1.874, -6.321e-6
-1.875, -6.327e-6
-1.876, -6.333e-6
-1.877, -6.336e-6
-1.878, -6.342e-6
-1.879, -6.348e-6
-1.880, -6.355e-6
-1.881, -6.361e-6
-1.882, -6.367e-6
-1.883, -6.373e-6
-1.884, -6.382e-6
-1.885, -6.391e-6
-1.886, -6.397e-6
-1.887, -6.403e-6
-1.888, -6.410e-6
-1.889, -6.419e-6
-1.890, -6.425e-6
-1.891, -6.431e-6
-1.892, -6.440e-6
-1.893, -6.452e-6
-1.894, -6.462e-6
-1.895, -6.471e-6
-1.896, -6.483e-6
-1.897, -6.492e-6
-1.898, -6.501e-6
-1.899, -6.511e-6
-1.900, -6.520e-6
-1.901, -6.529e-6
-1.902, -6.541e-6
-1.903, -6.553e-6
-1.904, -6.563e-6
-1.905, -6.575e-6
-1.906, -6.587e-6
-1.907, -6.596e-6
-1.908, -6.609e-6
-1.909, -6.621e-6
-1.910, -6.633e-6
-1.911, -6.645e-6
-1.912, -6.658e-6
-1.913, -6.673e-6
-1.914, -6.685e-6
-1.915, -6.700e-6
-1.916, -6.716e-6
-1.917, -6.728e-6
-1.918, -6.740e-6
-1.919, -6.755e-6
-1.920, -6.771e-6
-1.921, -6.783e-6
-1.922, -6.801e-6
-1.923, -6.817e-6
-1.924, -6.832e-6
-1.925, -6.850e-6
-1.926, -6.866e-6
-1.927, -6.881e-6
-1.928, -6.896e-6
-1.929, -6.912e-6
-1.930, -6.927e-6
-1.931, -6.942e-6
-1.932, -6.961e-6
-1.933, -6.979e-6
-1.934, -6.997e-6
-1.935, -7.016e-6
-1.936, -7.037e-6
-1.937, -7.052e-6
-1.938, -7.071e-6
-1.939, -7.089e-6
-1.940, -7.107e-6
-1.941, -7.126e-6
-1.942, -7.150e-6
-1.943, -7.169e-6
-1.944, -7.187e-6
-1.945, -7.208e-6
-1.946, -7.230e-6
-1.947, -7.251e-6
-1.948, -7.270e-6
-1.949, -7.291e-6
-1.950, -7.313e-6
-1.951, -7.334e-6
-1.952, -7.355e-6
-1.953, -7.380e-6
-1.954, -7.401e-6
-1.955, -7.423e-6
-1.956, -7.447e-6
-1.957, -7.469e-6
-1.958, -7.493e-6
-1.959, -7.515e-6
-1.960, -7.539e-6
-1.961, -7.560e-6
-1.962, -7.588e-6
-1.963, -7.613e-6
-1.964, -7.637e-6
-1.965, -7.665e-6
-1.966, -7.689e-6
-1.967, -7.714e-6
-1.968, -7.738e-6
-1.969, -7.762e-6
-1.970, -7.787e-6
-1.971, -7.811e-6
-1.972, -7.839e-6
-1.973, -7.870e-6
-1.974, -7.897e-6
-1.975, -7.925e-6
-1.976, -7.952e-6
-1.977, -7.980e-6
-1.978, -8.004e-6
-1.979, -8.032e-6
-1.980, -8.059e-6
-1.981, -8.087e-6
-1.982, -8.118e-6
-1.983, -8.145e-6
-1.984, -8.176e-6
-1.985, -8.203e-6
-1.986, -8.234e-6
-1.987, -8.264e-6
-1.988, -8.292e-6
-1.989, -8.320e-6
-1.990, -8.350e-6
-1.991, -8.378e-6
-1.992, -8.408e-6
-1.993, -8.442e-6
-1.994, -8.473e-6
-1.995, -8.503e-6
-1.996, -8.534e-6
-1.997, -8.567e-6
-1.998, -8.595e-6
-1.999, -8.629e-6
-2.000, -8.662e-6
-2.001, -8.690e-6
-2.002, -8.724e-6
-2.003, -8.757e-6
-2.004, -8.788e-6
-2.005, -8.822e-6
-2.006, -8.852e-6
-2.007, -8.886e-6
-2.008, -8.916e-6
-2.009, -8.947e-6
-2.010, -8.981e-6
-2.011, -9.011e-6
-2.012, -9.045e-6
-2.013, -9.082e-6
-2.014, -9.112e-6
-2.015, -9.146e-6
-2.016, -9.183e-6
-2.017, -9.213e-6
-2.018, -9.247e-6
-2.019, -9.281e-6
-2.020, -9.314e-6
-2.021, -9.348e-6
-2.022, -9.382e-6
-2.023, -9.418e-6
-2.024, -9.452e-6
-2.025, -9.486e-6
-2.026, -9.522e-6
-2.027, -9.556e-6
-2.028, -9.587e-6
-2.029, -9.620e-6
-2.030, -9.657e-6
-2.031, -9.688e-6
-2.032, -9.724e-6
-2.033, -9.761e-6
-2.034, -9.792e-6
-2.035, -9.825e-6
-2.036, -9.862e-6
-2.037, -9.896e-6
-2.038, -9.930e-6
-2.039, -9.963e-6
-2.040, -9.997e-6
-2.041, -1.003e-5
-2.042, -1.006e-5
-2.043, -1.010e-5
-2.044, -1.013e-5
-2.045, -1.017e-5
-2.046, -1.020e-5
-2.047, -1.024e-5
-2.048, -1.027e-5
-2.049, -1.030e-5
-2.050, -1.033e-5
-2.051, -1.036e-5
-2.052, -1.039e-5
-2.053, -1.043e-5
-2.054, -1.047e-5
-2.055, -1.050e-5
-2.056, -1.053e-5
-2.057, -1.056e-5
-2.058, -1.059e-5
-2.059, -1.063e-5
-2.060, -1.066e-5
-2.061, -1.069e-5
-2.062, -1.072e-5
-2.063, -1.075e-5
-2.064, -1.079e-5
-2.065, -1.082e-5
-2.066, -1.085e-5
-2.067, -1.088e-5
-2.068, -1.091e-5
-2.069, -1.094e-5
-2.070, -1.097e-5
-2.071, -1.100e-5
-2.072, -1.103e-5
-2.073, -1.106e-5
-2.074, -1.109e-5
-2.075, -1.112e-5
-2.076, -1.115e-5
-2.077, -1.118e-5
-2.078, -1.121e-5
-2.079, -1.124e-5
-2.080, -1.126e-5
-2.081, -1.129e-5
-2.082, -1.132e-5
-2.083, -1.135e-5
-2.084, -1.137e-5
-2.085, -1.140e-5
-2.086, -1.143e-5
-2.087, -1.145e-5
-2.088, -1.148e-5
-2.089, -1.150e-5
-2.090, -1.153e-5
-2.091, -1.155e-5
-2.092, -1.158e-5
-2.093, -1.160e-5
-2.094, -1.163e-5
-2.095, -1.165e-5
-2.096, -1.167e-5
-2.097, -1.170e-5
-2.098, -1.172e-5
-2.099, -1.174e-5
-2.100, -1.176e-5
-2.101, -1.178e-5
-2.102, -1.180e-5
-2.103, -1.182e-5
-2.104, -1.185e-5
-2.105, -1.186e-5
-2.106, -1.188e-5
-2.107, -1.190e-5
-2.108, -1.192e-5
-2.109, -1.193e-5
-2.110, -1.196e-5
-2.111, -1.197e-5
-2.112, -1.198e-5
-2.113, -1.200e-5
-2.114, -1.202e-5
-2.115, -1.204e-5
-2.116, -1.205e-5
-2.117, -1.207e-5
-2.118, -1.208e-5
-2.119, -1.209e-5
-2.120, -1.211e-5
-2.121, -1.211e-5
-2.122, -1.213e-5
-2.123, -1.214e-5
-2.124, -1.215e-5
-2.125, -1.217e-5
-2.126, -1.218e-5
-2.127, -1.219e-5
-2.128, -1.220e-5
-2.129, -1.221e-5
-2.130, -1.222e-5
-2.131, -1.222e-5
-2.132, -1.223e-5
-2.133, -1.224e-5
-2.134, -1.224e-5
-2.135, -1.225e-5
-2.136, -1.226e-5
-2.137, -1.226e-5
-2.138, -1.227e-5
-2.139, -1.227e-5
-2.140, -1.228e-5
-2.141, -1.228e-5
-2.142, -1.228e-5
-2.143, -1.229e-5
-2.144, -1.229e-5
-2.145, -1.230e-5
-2.146, -1.230e-5
-2.147, -1.230e-5
-2.148, -1.230e-5
-2.149, -1.230e-5
-2.150, -1.230e-5
-2.151, -1.230e-5
-2.152, -1.230e-5
-2.153, -1.230e-5
-2.154, -1.230e-5
-2.155, -1.230e-5
-2.156, -1.229e-5
-2.157, -1.229e-5
-2.158, -1.229e-5
-2.159, -1.228e-5
-2.160, -1.228e-5
-2.161, -1.227e-5
-2.162, -1.227e-5
-2.163, -1.226e-5
-2.164, -1.226e-5
-2.165, -1.225e-5
-2.166, -1.225e-5
-2.167, -1.224e-5
-2.168, -1.223e-5
-2.169, -1.223e-5
-2.170, -1.222e-5
-2.171, -1.221e-5
-2.172, -1.220e-5
-2.173, -1.219e-5
-2.174, -1.219e-5
-2.175, -1.218e-5
-2.176, -1.217e-5
-2.177, -1.216e-5
-2.178, -1.215e-5
-2.179, -1.214e-5
-2.180, -1.213e-5
-2.181, -1.211e-5
-2.182, -1.211e-5
-2.183, -1.210e-5
-2.184, -1.208e-5
-2.185, -1.207e-5
-2.186, -1.206e-5
-2.187, -1.205e-5
-2.188, -1.204e-5
-2.189, -1.202e-5
-2.190, -1.201e-5
-2.191, -1.199e-5
-2.192, -1.198e-5
-2.193, -1.197e-5
-2.194, -1.196e-5
-2.195, -1.194e-5
-2.196, -1.193e-5
-2.197, -1.191e-5
-2.198, -1.189e-5
-2.199, -1.188e-5
-2.200, -1.187e-5
-2.201, -1.185e-5
-2.202, -1.183e-5
-2.203, -1.182e-5
-2.204, -1.181e-5
-2.205, -1.179e-5
-2.206, -1.178e-5
-2.207, -1.176e-5
-2.208, -1.174e-5
-2.209, -1.173e-5
-2.210, -1.171e-5
-2.211, -1.169e-5
-2.212, -1.167e-5
-2.213, -1.166e-5
-2.214, -1.164e-5
-2.215, -1.162e-5
-2.216, -1.161e-5
-2.217, -1.159e-5
-2.218, -1.157e-5
-2.219, -1.155e-5
-2.220, -1.154e-5
-2.221, -1.152e-5
-2.222, -1.150e-5
-2.223, -1.148e-5
-2.224, -1.146e-5
-2.225, -1.144e-5
-2.226, -1.143e-5
-2.227, -1.141e-5
-2.228, -1.139e-5
-2.229, -1.138e-5
-2.230, -1.136e-5
-2.231, -1.134e-5
-2.232, -1.132e-5
-2.233, -1.130e-5
-2.234, -1.128e-5
-2.235, -1.126e-5
-2.236, -1.125e-5
-2.237, -1.123e-5
-2.238, -1.121e-5
-2.239, -1.119e-5
-2.240, -1.117e-5
-2.241, -1.115e-5
-2.242, -1.113e-5
-2.243, -1.111e-5
-2.244, -1.110e-5
-2.245, -1.108e-5
-2.246, -1.106e-5
-2.247, -1.104e-5
-2.248, -1.102e-5
-2.249, -1.100e-5
-2.250, -1.098e-5
-2.251, -1.096e-5
-2.252, -1.095e-5
-2.253, -1.093e-5
-2.254, -1.091e-5
-2.255, -1.089e-5
-2.256, -1.088e-5
-2.257, -1.086e-5
-2.258, -1.084e-5
-2.259, -1.082e-5
-2.260, -1.080e-5
-2.261, -1.078e-5
-2.262, -1.076e-5
-2.263, -1.074e-5
-2.264, -1.073e-5
-2.265, -1.071e-5
-2.266, -1.069e-5
-2.267, -1.067e-5
-2.268, -1.065e-5
-2.269, -1.063e-5
-2.270, -1.062e-5
-2.271, -1.060e-5
-2.272, -1.058e-5
-2.273, -1.056e-5
-2.274, -1.055e-5
-2.275, -1.053e-5
-2.276, -1.051e-5
-2.277, -1.049e-5
-2.278, -1.047e-5
-2.279, -1.046e-5
-2.280, -1.044e-5
-2.281, -1.042e-5
-2.282, -1.040e-5
-2.283, -1.039e-5
-2.284, -1.037e-5
-2.285, -1.035e-5
-2.286, -1.034e-5
-2.287, -1.032e-5
-2.288, -1.030e-5
-2.289, -1.028e-5
-2.290, -1.027e-5
-2.291, -1.025e-5
-2.292, -1.024e-5
-2.293, -1.022e-5
-2.294, -1.020e-5
-2.295, -1.019e-5
-2.296, -1.017e-5
-2.297, -1.015e-5
-2.298, -1.013e-5
-2.299, -1.012e-5
-2.300, -1.010e-5
-2.301, -1.008e-5
-2.302, -1.007e-5
-2.303, -1.005e-5
-2.304, -1.004e-5
-2.305, -1.002e-5
-2.306, -1.001e-5
-2.307, -9.991e-6
-2.308, -9.975e-6
-2.309, -9.960e-6
-2.310, -9.945e-6
-2.311, -9.930e-6
-2.312, -9.914e-6
-2.313, -9.899e-6
-2.314, -9.887e-6
-2.315, -9.871e-6
-2.316, -9.859e-6
-2.317, -9.844e-6
-2.318, -9.825e-6
-2.319, -9.810e-6
-2.320, -9.798e-6
-2.321, -9.780e-6
-2.322, -9.767e-6
-2.323, -9.752e-6
-2.324, -9.737e-6
-2.325, -9.724e-6
-2.326, -9.712e-6
-2.327, -9.697e-6
-2.328, -9.685e-6
-2.329, -9.669e-6
-2.330, -9.657e-6
-2.331, -9.642e-6
-2.332, -9.627e-6
-2.333, -9.617e-6
-2.334, -9.605e-6
-2.335, -9.590e-6
-2.336, -9.581e-6
-2.337, -9.565e-6
-2.338, -9.550e-6
-2.339, -9.538e-6
-2.340, -9.522e-6
-2.341, -9.507e-6
-2.342, -9.495e-6
-2.343, -9.483e-6
-2.344, -9.470e-6
-2.345, -9.458e-6
-2.346, -9.449e-6
-2.347, -9.434e-6
-2.348, -9.421e-6
-2.349, -9.409e-6
-2.350, -9.397e-6
-2.351, -9.382e-6
-2.352, -9.369e-6
-2.353, -9.360e-6
-2.354, -9.351e-6
-2.355, -9.339e-6
-2.356, -9.333e-6
-2.357, -9.317e-6
-2.358, -9.305e-6
-2.359, -9.293e-6
-2.360, -9.281e-6
-2.361, -9.265e-6
-2.362, -9.256e-6
-2.363, -9.244e-6
-2.364, -9.235e-6
-2.365, -9.226e-6
-2.366, -9.213e-6
-2.367, -9.204e-6
-2.368, -9.192e-6
-2.369, -9.180e-6
-2.370, -9.167e-6
-2.371, -9.158e-6
-2.372, -9.149e-6
-2.373, -9.140e-6
-2.374, -9.131e-6
-2.375, -9.118e-6
-2.376, -9.112e-6
-2.377, -9.103e-6
-2.378, -9.091e-6
-2.379, -9.079e-6
-2.380, -9.069e-6
-2.381, -9.060e-6
-2.382, -9.051e-6
-2.383, -9.042e-6
-2.384, -9.033e-6
-2.385, -9.020e-6
-2.386, -9.014e-6
-2.387, -9.002e-6
-2.388, -8.990e-6
-2.389, -8.981e-6
-2.390, -8.972e-6
-2.391, -8.962e-6
-2.392, -8.956e-6
-2.393, -8.950e-6
-2.394, -8.941e-6
-2.395, -8.932e-6
-2.396, -8.926e-6
-2.397, -8.913e-6
-2.398, -8.904e-6
-2.399, -8.895e-6
-2.400, -8.886e-6
-2.401, -8.877e-6
-2.402, -8.870e-6
-2.403, -8.861e-6
-2.404, -8.855e-6
-2.405, -8.846e-6
-2.406, -8.837e-6
-2.407, -8.831e-6
-2.408, -8.818e-6
-2.409, -8.812e-6
-2.410, -8.806e-6
-2.411, -8.797e-6
-2.412, -8.788e-6
-2.413, -8.782e-6
-2.414, -8.776e-6
-2.415, -8.766e-6
-2.416, -8.760e-6
-2.417, -8.751e-6
-2.418, -8.745e-6
-2.419, -8.739e-6
-2.420, -8.730e-6
-2.421, -8.724e-6
-2.422, -8.717e-6
-2.423, -8.711e-6
-2.424, -8.705e-6
-2.425, -8.696e-6
-2.426, -8.690e-6
-2.427, -8.681e-6
-2.428, -8.675e-6
-2.429, -8.668e-6
-2.430, -8.662e-6
-2.431, -8.653e-6
-2.432, -8.650e-6
-2.433, -8.644e-6
-2.434, -8.638e-6
-2.435, -8.632e-6
-2.436, -8.629e-6
-2.437, -8.623e-6
-2.438, -8.616e-6
-2.439, -8.610e-6
-2.440, -8.604e-6
-2.441, -8.601e-6
-2.442, -8.595e-6
-2.443, -8.592e-6
-2.444, -8.586e-6
-2.445, -8.580e-6
-2.446, -8.574e-6
-2.447, -8.571e-6
-2.448, -8.561e-6
-2.449, -8.555e-6
-2.450, -8.552e-6
-2.451, -8.546e-6
-2.452, -8.543e-6
-2.453, -8.540e-6
-2.454, -8.534e-6
-2.455, -8.531e-6
-2.456, -8.531e-6
-2.457, -8.525e-6
-2.458, -8.519e-6
-2.459, -8.515e-6
-2.460, -8.512e-6
-2.461, -8.506e-6
-2.462, -8.506e-6
-2.463, -8.503e-6
-2.464, -8.500e-6
-2.465, -8.497e-6
-2.466, -8.494e-6
-2.467, -8.491e-6
-2.468, -8.485e-6
-2.469, -8.482e-6
-2.470, -8.479e-6
-2.471, -8.473e-6
-2.472, -8.473e-6
-2.473, -8.473e-6
-2.474, -8.470e-6
-2.475, -8.470e-6
-2.476, -8.470e-6
-2.477, -8.466e-6
-2.478, -8.463e-6
-2.479, -8.463e-6
-2.480, -8.463e-6
-2.481, -8.463e-6
-2.482, -8.463e-6
-2.483, -8.463e-6
-2.484, -8.463e-6
-2.485, -8.463e-6
-2.486, -8.466e-6
-2.487, -8.463e-6
-2.488, -8.460e-6
-2.489, -8.460e-6
-2.490, -8.457e-6
-2.491, -8.457e-6
-2.492, -8.460e-6
-2.493, -8.460e-6
-2.494, -8.460e-6
-2.495, -8.463e-6
-2.496, -8.466e-6
-2.497, -8.466e-6
-2.498, -8.470e-6
-2.499, -8.473e-6
-2.500, -8.476e-6
-2.501, -8.479e-6
-2.502, -8.482e-6
-2.503, -8.485e-6
-2.504, -8.491e-6
-2.505, -8.494e-6
-2.506, -8.500e-6
-2.507, -8.506e-6
-2.508, -8.509e-6
-2.509, -8.512e-6
-2.510, -8.519e-6
-2.511, -8.519e-6
-2.512, -8.525e-6
-2.513, -8.531e-6
-2.514, -8.537e-6
-2.515, -8.543e-6
-2.516, -8.552e-6
-2.517, -8.558e-6
-2.518, -8.567e-6
-2.519, -8.577e-6
-2.520, -8.586e-6
-2.521, -8.595e-6
-2.522, -8.604e-6
-2.523, -8.616e-6
-2.524, -8.629e-6
-2.525, -8.638e-6
-2.526, -8.653e-6
-2.527, -8.662e-6
-2.528, -8.672e-6
-2.529, -8.684e-6
-2.530, -8.696e-6
-2.531, -8.708e-6
-2.532, -8.724e-6
-2.533, -8.739e-6
-2.534, -8.754e-6
-2.535, -8.769e-6
-2.536, -8.788e-6
-2.537, -8.803e-6
-2.538, -8.818e-6
-2.539, -8.837e-6
-2.540, -8.855e-6
-2.541, -8.874e-6
-2.542, -8.895e-6
-2.543, -8.919e-6
-2.544, -8.941e-6
-2.545, -8.962e-6
-2.546, -8.990e-6
-2.547, -9.014e-6
-2.548, -9.036e-6
-2.549, -9.063e-6
-2.550, -9.091e-6
-2.551, -9.115e-6
-2.552, -9.146e-6
-2.553, -9.174e-6
-2.554, -9.204e-6
-2.555, -9.235e-6
-2.556, -9.268e-6
-2.557, -9.302e-6
-2.558, -9.336e-6
-2.559, -9.372e-6
-2.560, -9.412e-6
-2.561, -9.452e-6
-2.562, -9.492e-6
-2.563, -9.535e-6
-2.564, -9.578e-6
-2.565, -9.617e-6
-2.566, -9.666e-6
-2.567, -9.712e-6
-2.568, -9.758e-6
-2.569, -9.810e-6
-2.570, -9.862e-6
-2.571, -9.914e-6
-2.572, -9.969e-6
-2.573, -1.002e-5
-2.574, -1.008e-5
-2.575, -1.014e-5
-2.576, -1.021e-5
-2.577, -1.027e-5
-2.578, -1.033e-5
-2.579, -1.040e-5
-2.580, -1.047e-5
-2.581, -1.054e-5
-2.582, -1.061e-5
-2.583, -1.069e-5
-2.584, -1.077e-5
-2.585, -1.085e-5
-2.586, -1.094e-5
-2.587, -1.103e-5
-2.588, -1.111e-5
-2.589, -1.120e-5
-2.590, -1.129e-5
-2.591, -1.139e-5
-2.592, -1.149e-5
-2.593, -1.159e-5
-2.594, -1.170e-5
-2.595, -1.181e-5
-2.596, -1.192e-5
-2.597, -1.203e-5
-2.598, -1.215e-5
-2.599, -1.227e-5
-2.600, -1.239e-5
-2.601, -1.252e-5
-2.602, -1.265e-5
-2.603, -1.279e-5
-2.604, -1.293e-5
-2.605, -1.306e-5
-2.606, -1.321e-5
-2.607, -1.336e-5
-2.608, -1.352e-5
-2.609, -1.367e-5
-2.610, -1.384e-5
-2.611, -1.400e-5
-2.612, -1.417e-5
-2.613, -1.435e-5
-2.614, -1.453e-5
-2.615, -1.472e-5
-2.616, -1.491e-5
-2.617, -1.511e-5
-2.618, -1.530e-5
-2.619, -1.550e-5
-2.620, -1.571e-5
-2.621, -1.593e-5
-2.622, -1.615e-5
-2.623, -1.637e-5
-2.624, -1.660e-5
-2.625, -1.683e-5
-2.626, -1.708e-5
-2.627, -1.733e-5
-2.628, -1.758e-5
-2.629, -1.784e-5
-2.630, -1.810e-5
-2.631, -1.836e-5
-2.632, -1.863e-5
-2.633, -1.891e-5
-2.634, -1.920e-5
-2.635, -1.949e-5
-2.636, -1.980e-5
-2.637, -2.011e-5
-2.638, -2.042e-5
-2.639, -2.073e-5
-2.640, -2.106e-5
-2.641, -2.139e-5
-2.642, -2.172e-5
-2.643, -2.206e-5
-2.644, -2.241e-5
-2.645, -2.277e-5
-2.646, -2.314e-5
-2.647, -2.351e-5
-2.648, -2.388e-5
-2.649, -2.426e-5
-2.650, -2.465e-5
-2.651, -2.504e-5
-2.652, -2.544e-5
-2.653, -2.585e-5
-2.654, -2.627e-5
-2.655, -2.669e-5
-2.656, -2.712e-5
-2.657, -2.756e-5
-2.658, -2.801e-5
-2.659, -2.845e-5
-2.660, -2.891e-5
-2.661, -2.937e-5
-2.662, -2.983e-5
-2.663, -3.033e-5
-2.664, -3.083e-5
-2.665, -3.131e-5
-2.666, -3.182e-5
-2.667, -3.233e-5
-2.668, -3.285e-5
-2.669, -3.336e-5
-2.670, -3.389e-5
-2.671, -3.442e-5
-2.672, -3.495e-5
-2.673, -3.550e-5
-2.674, -3.605e-5
-2.675, -3.661e-5
-2.676, -3.718e-5
-2.677, -3.776e-5
-2.678, -3.835e-5
-2.679, -3.893e-5
-2.680, -3.953e-5
-2.681, -4.013e-5
-2.682, -4.072e-5
-2.683, -4.133e-5
-2.684, -4.196e-5
-2.685, -4.258e-5
-2.686, -4.322e-5
-2.687, -4.386e-5
-2.688, -4.452e-5
-2.689, -4.517e-5
-2.690, -4.583e-5
-2.691, -4.649e-5
-2.692, -4.716e-5
-2.693, -4.783e-5
-2.694, -4.851e-5
-2.695, -4.920e-5
-2.696, -4.990e-5
-2.697, -5.062e-5
-2.698, -5.131e-5
-2.699, -5.202e-5
-2.700, -5.266e-5
-2.699, -5.216e-5
-2.698, -5.120e-5
-2.697, -5.029e-5
-2.696, -4.938e-5
-2.695, -4.848e-5
-2.694, -4.763e-5
-2.693, -4.678e-5
-2.692, -4.593e-5
-2.691, -4.510e-5
-2.690, -4.429e-5
-2.689, -4.349e-5
-2.688, -4.269e-5
-2.687, -4.190e-5
-2.686, -4.116e-5
-2.685, -4.040e-5
-2.684, -3.967e-5
-2.683, -3.895e-5
-2.682, -3.824e-5
-2.681, -3.753e-5
-2.680, -3.685e-5
-2.679, -3.616e-5
-2.678, -3.548e-5
-2.677, -3.484e-5
-2.676, -3.419e-5
-2.675, -3.355e-5
-2.674, -3.294e-5
-2.673, -3.233e-5
-2.672, -3.172e-5
-2.671, -3.113e-5
-2.670, -3.054e-5
-2.669, -2.997e-5
-2.668, -2.939e-5
-2.667, -2.885e-5
-2.666, -2.830e-5
-2.665, -2.776e-5
-2.664, -2.723e-5
-2.663, -2.673e-5
-2.662, -2.620e-5
-2.661, -2.568e-5
-2.660, -2.520e-5
-2.659, -2.471e-5
-2.658, -2.423e-5
-2.657, -2.377e-5
-2.656, -2.331e-5
-2.655, -2.287e-5
-2.654, -2.244e-5
-2.653, -2.201e-5
-2.652, -2.159e-5
-2.651, -2.117e-5
-2.650, -2.077e-5
-2.649, -2.037e-5
-2.648, -1.998e-5
-2.647, -1.960e-5
-2.646, -1.923e-5
-2.645, -1.886e-5
-2.644, -1.851e-5
-2.643, -1.816e-5
-2.642, -1.782e-5
-2.641, -1.748e-5
-2.640, -1.715e-5
-2.639, -1.683e-5
-2.638, -1.651e-5
-2.637, -1.621e-5
-2.636, -1.590e-5
-2.635, -1.561e-5
-2.634, -1.533e-5
-2.633, -1.505e-5
-2.632, -1.478e-5
-2.631, -1.451e-5
-2.630, -1.425e-5
-2.629, -1.399e-5
-2.628, -1.374e-5
-2.627, -1.350e-5
-2.626, -1.326e-5
-2.625, -1.303e-5
-2.624, -1.281e-5
-2.623, -1.259e-5
-2.622, -1.238e-5
-2.621, -1.217e-5
-2.620, -1.196e-5
-2.619, -1.176e-5
-2.618, -1.157e-5
-2.617, -1.138e-5
-2.616, -1.120e-5
-2.615, -1.102e-5
-2.614, -1.085e-5
-2.613, -1.068e-5
-2.612, -1.052e-5
-2.611, -1.036e-5
-2.610, -1.020e-5
-2.609, -1.005e-5
-2.608, -9.899e-6
-2.607, -9.755e-6
-2.606, -9.614e-6
-2.605, -9.477e-6
-2.604, -9.348e-6
-2.603, -9.219e-6
-2.602, -9.091e-6
-2.601, -8.968e-6
-2.600, -8.849e-6
-2.599, -8.733e-6
-2.598, -8.623e-6
-2.597, -8.515e-6
-2.596, -8.411e-6
-2.595, -8.310e-6
-2.594, -8.212e-6
-2.593, -8.118e-6
-2.592, -8.023e-6
-2.591, -7.931e-6
-2.590, -7.845e-6
-2.589, -7.756e-6
-2.588, -7.674e-6
-2.587, -7.594e-6
-2.586, -7.518e-6
-2.585, -7.441e-6
-2.584, -7.368e-6
-2.583, -7.294e-6
-2.582, -7.221e-6
-2.581, -7.150e-6
-2.580, -7.083e-6
-2.579, -7.019e-6
-2.578, -6.954e-6
-2.577, -6.896e-6
-2.576, -6.838e-6
-2.575, -6.783e-6
-2.574, -6.731e-6
-2.573, -6.679e-6
-2.572, -6.627e-6
-2.571, -6.575e-6
-2.570, -6.526e-6
-2.569, -6.477e-6
-2.568, -6.431e-6
-2.567, -6.388e-6
-2.566, -6.348e-6
-2.565, -6.306e-6
-2.564, -6.266e-6
-2.563, -6.223e-6
-2.562, -6.183e-6
-2.561, -6.143e-6
-2.560, -6.107e-6
-2.559, -6.067e-6
-2.558, -6.033e-6
-2.557, -5.999e-6
-2.556, -5.969e-6
-2.555, -5.938e-6
-2.554, -5.908e-6
-2.553, -5.880e-6
-2.552, -5.853e-6
-2.551, -5.825e-6
-2.550, -5.797e-6
-2.549, -5.773e-6
-2.548, -5.748e-6
-2.547, -5.727e-6
-2.546, -5.703e-6
-2.545, -5.678e-6
-2.544, -5.660e-6
-2.543, -5.635e-6
-2.542, -5.614e-6
-2.541, -5.592e-6
-2.540, -5.571e-6
-2.539, -5.546e-6
-2.538, -5.528e-6
-2.537, -5.510e-6
-2.536, -5.491e-6
-2.535, -5.473e-6
-2.534, -5.458e-6
-2.533, -5.439e-6
-2.532, -5.424e-6
-2.531, -5.409e-6
-2.530, -5.396e-6
-2.529, -5.381e-6
-2.528, -5.369e-6
-2.527, -5.357e-6
-2.526, -5.344e-6
-2.525, -5.332e-6
-2.524, -5.320e-6
-2.523, -5.305e-6
-2.522, -5.289e-6
-2.521, -5.277e-6
-2.520, -5.262e-6
-2.519, -5.250e-6
-2.518, -5.240e-6
-2.517, -5.231e-6
-2.516, -5.222e-6
-2.515, -5.210e-6
-2.514, -5.201e-6
-2.513, -5.188e-6
-2.512, -5.176e-6
-2.511, -5.167e-6
-2.510, -5.158e-6
-2.509, -5.149e-6
-2.508, -5.142e-6
-2.507, -5.139e-6
-2.506, -5.130e-6
-2.505, -5.124e-6
-2.504, -5.118e-6
-2.503, -5.109e-6
-2.502, -5.100e-6
-2.501, -5.090e-6
-2.500, -5.081e-6
-2.499, -5.072e-6
-2.498, -5.066e-6
-2.497, -5.060e-6
-2.496, -5.054e-6
-2.495, -5.048e-6
-2.494, -5.041e-6
-2.493, -5.032e-6
-2.492, -5.026e-6
-2.491, -5.017e-6
-2.490, -5.011e-6
-2.489, -5.005e-6
-2.488, -5.002e-6
-2.487, -4.999e-6
-2.486, -4.996e-6
-2.485, -4.992e-6
-2.484, -4.986e-6
-2.483, -4.980e-6
-2.482, -4.974e-6
-2.481, -4.968e-6
-2.480, -4.962e-6
-2.479, -4.956e-6
-2.478, -4.953e-6
-2.477, -4.950e-6
-2.476, -4.947e-6
-2.475, -4.940e-6
-2.474, -4.934e-6
-2.473, -4.928e-6
-2.472, -4.922e-6
-2.471, -4.919e-6
-2.470, -4.916e-6
-2.469, -4.910e-6
-2.468, -4.910e-6
-2.467, -4.907e-6
-2.466, -4.904e-6
-2.465, -4.901e-6
-2.464, -4.901e-6
-2.463, -4.895e-6
-2.462, -4.891e-6
-2.461, -4.885e-6
-2.460, -4.882e-6
-2.459, -4.876e-6
-2.458, -4.876e-6
-2.457, -4.873e-6
-2.456, -4.867e-6
-2.455, -4.864e-6
-2.454, -4.861e-6
-2.453, -4.858e-6
-2.452, -4.852e-6
-2.451, -4.849e-6
-2.450, -4.846e-6
-2.449, -4.839e-6
-2.448, -4.839e-6
-2.447, -4.836e-6
-2.446, -4.836e-6
-2.445, -4.833e-6
-2.444, -4.833e-6
-2.443, -4.830e-6
-2.442, -4.827e-6
-2.441, -4.821e-6
-2.440, -4.818e-6
-2.439, -4.815e-6
-2.438, -4.812e-6
-2.437, -4.809e-6
-2.436, -4.806e-6
-2.435, -4.800e-6
-2.434, -4.800e-6
-2.433, -4.797e-6
-2.432, -4.794e-6
-2.431, -4.790e-6
-2.430, -4.790e-6
-2.429, -4.784e-6
-2.428, -4.781e-6
-2.427, -4.778e-6
-2.426, -4.775e-6
-2.425, -4.775e-6
-2.424, -4.775e-6
-2.423, -4.772e-6
-2.422, -4.769e-6
-2.421, -4.769e-6
-2.420, -4.766e-6
-2.419, -4.760e-6
-2.418, -4.757e-6
-2.417, -4.757e-6
-2.416, -4.754e-6
-2.415, -4.751e-6
-2.414, -4.751e-6
-2.413, -4.748e-6
-2.412, -4.745e-6
-2.411, -4.741e-6
-2.410, -4.738e-6
-2.409, -4.735e-6
-2.408, -4.732e-6
-2.407, -4.729e-6
-2.406, -4.729e-6
-2.405, -4.726e-6
-2.404, -4.726e-6
-2.403, -4.723e-6
-2.402, -4.720e-6
-2.401, -4.717e-6
-2.400, -4.717e-6
-2.399, -4.714e-6
-2.398, -4.711e-6
-2.397, -4.708e-6
-2.396, -4.705e-6
-2.395, -4.702e-6
-2.394, -4.702e-6
-2.393, -4.699e-6
-2.392, -4.696e-6
-2.391, -4.693e-6
-2.390, -4.693e-6
-2.389, -4.689e-6
-2.388, -4.686e-6
-2.387, -4.686e-6
-2.386, -4.683e-6
-2.385, -4.680e-6
-2.384, -4.677e-6
-2.383, -4.674e-6
-2.382, -4.671e-6
-2.381, -4.668e-6
-2.380, -4.665e-6
-2.379, -4.665e-6
-2.378, -4.662e-6
-2.377, -4.662e-6
-2.376, -4.659e-6
-2.375, -4.656e-6
-2.374, -4.656e-6
-2.373, -4.653e-6
-2.372, -4.650e-6
-2.371, -4.647e-6
-2.370, -4.647e-6
-2.369, -4.644e-6
-2.368, -4.644e-6
-2.367, -4.640e-6
-2.366, -4.640e-6
-2.365, -4.637e-6
-2.364, -4.634e-6
-2.363, -4.631e-6
-2.362, -4.628e-6
-2.361, -4.625e-6
-2.360, -4.625e-6
-2.359, -4.619e-6
-2.358, -4.616e-6
-2.357, -4.616e-6
-2.356, -4.616e-6
-2.355, -4.613e-6
-2.354, -4.610e-6
-2.353, -4.610e-6
-2.352, -4.607e-6
-2.351, -4.607e-6
-2.350, -4.604e-6
-2.349, -4.601e-6
-2.348, -4.598e-6
-2.347, -4.598e-6
-2.346, -4.595e-6
-2.345, -4.591e-6
-2.344, -4.591e-6
-2.343, -4.588e-6
-2.342, -4.585e-6
-2.341, -4.582e-6
-2.340, -4.579e-6
-2.339, -4.573e-6
-2.338, -4.570e-6
-2.337, -4.567e-6
-2.336, -4.567e-6
-2.335, -4.561e-6
-2.334, -4.561e-6
-2.333, -4.558e-6
-2.332, -4.555e-6
-2.331, -4.552e-6
-2.330, -4.552e-6
-2.329, -4.549e-6
-2.328, -4.546e-6
-2.327, -4.543e-6
-2.326, -4.543e-6
-2.325, -4.539e-6
-2.324, -4.539e-6
-2.323, -4.536e-6
-2.322, -4.533e-6
-2.321, -4.530e-6
-2.320, -4.527e-6
-2.319, -4.521e-6
-2.318, -4.518e-6
-2.317, -4.518e-6
-2.316, -4.515e-6
-2.315, -4.512e-6
-2.314, -4.512e-6
-2.313, -4.509e-6
-2.312, -4.503e-6
-2.311, -4.500e-6
-2.310, -4.497e-6
-2.309, -4.490e-6
-2.308, -4.490e-6
-2.307, -4.490e-6
-2.306, -4.490e-6
-2.305, -4.490e-6
-2.304, -4.490e-6
-2.303, -4.487e-6
-2.302, -4.484e-6
-2.301, -4.478e-6
-2.300, -4.475e-6
-2.299, -4.469e-6
-2.298, -4.466e-6
-2.297, -4.463e-6
-2.296, -4.460e-6
-2.295, -4.457e-6
-2.294, -4.457e-6
-2.293, -4.454e-6
-2.292, -4.451e-6
-2.291, -4.445e-6
-2.290, -4.442e-6
-2.289, -4.438e-6
-2.288, -4.435e-6
-2.287, -4.432e-6
-2.286, -4.429e-6
-2.285, -4.429e-6
-2.284, -4.429e-6
-2.283, -4.429e-6
-2.282, -4.423e-6
-2.281, -4.420e-6
-2.280, -4.420e-6
-2.279, -4.411e-6
-2.278, -4.408e-6
-2.277, -4.405e-6
-2.276, -4.402e-6
-2.275, -4.399e-6
-2.274, -4.396e-6
-2.273, -4.393e-6
-2.272, -4.389e-6
-2.271, -4.386e-6
-2.270, -4.383e-6
-2.269, -4.374e-6
-2.268, -4.371e-6
-2.267, -4.368e-6
-2.266, -4.365e-6
-2.265, -4.365e-6
-2.264, -4.362e-6
-2.263, -4.362e-6
-2.262, -4.359e-6
-2.261, -4.359e-6
-2.260, -4.353e-6
-2.259, -4.347e-6
-2.258, -4.344e-6
-2.257, -4.337e-6
-2.256, -4.334e-6
-2.255, -4.331e-6
-2.254, -4.328e-6
-2.253, -4.322e-6
-2.252, -4.319e-6
-2.251, -4.313e-6
-2.250, -4.310e-6
-2.249, -4.304e-6
-2.248, -4.298e-6
-2.247, -4.295e-6
-2.246, -4.295e-6
-2.245, -4.292e-6
-2.244, -4.288e-6
-2.243, -4.285e-6
-2.242, -4.282e-6
-2.241, -4.279e-6
-2.240, -4.276e-6
-2.239, -4.270e-6
-2.238, -4.264e-6
-2.237, -4.261e-6
-2.236, -4.258e-6
-2.235, -4.255e-6
-2.234, -4.249e-6
-2.233, -4.246e-6
-2.232, -4.240e-6
-2.231, -4.233e-6
-2.230, -4.227e-6
-2.229, -4.224e-6
-2.228, -4.218e-6
-2.227, -4.215e-6
-2.226, -4.212e-6
-2.225, -4.209e-6
-2.224, -4.206e-6
-2.223, -4.203e-6
-2.222, -4.197e-6
-2.221, -4.194e-6
-2.220, -4.191e-6
-2.219, -4.184e-6
-2.218, -4.181e-6
-2.217, -4.175e-6
-2.216, -4.172e-6
-2.215, -4.166e-6
-2.214, -4.163e-6
-2.213, -4.157e-6
-2.212, -4.151e-6
-2.211, -4.145e-6
-2.210, -4.138e-6
-2.209, -4.135e-6
-2.208, -4.129e-6
-2.207, -4.126e-6
-2.206, -4.123e-6
-2.205, -4.117e-6
-2.204, -4.114e-6
-2.203, -4.108e-6
-2.202, -4.102e-6
-2.201, -4.099e-6
-2.200, -4.096e-6
-2.199, -4.090e-6
-2.198, -4.086e-6
-2.197, -4.080e-6
-2.196, -4.077e-6
-2.195, -4.071e-6
-2.194, -4.065e-6
-2.193, -4.059e-6
-2.192, -4.053e-6
-2.191, -4.047e-6
-2.190, -4.044e-6
-2.189, -4.034e-6
-2.188, -4.031e-6
-2.187, -4.025e-6
-2.186, -4.022e-6
-2.185, -4.013e-6
-2.184, -4.010e-6
-2.183, -4.004e-6
-2.182, -3.998e-6
-2.181, -3.995e-6
-2.180, -3.989e-6
-2.179, -3.982e-6
-2.178, -3.979e-6
-2.177, -3.973e-6
-2.176, -3.967e-6
-2.175, -3.961e-6
-2.174, -3.955e-6
-2.173, -3.949e-6
-2.172, -3.943e-6
-2.171, -3.936e-6
-2.170, -3.930e-6
-2.169, -3.924e-6
-2.168, -3.918e-6
-2.167, -3.915e-6
-2.166, -3.909e-6
-2.165, -3.903e-6
-2.164, -3.900e-6
-2.163, -3.894e-6
-2.162, -3.884e-6
-2.161, -3.878e-6
-2.160, -3.872e-6
-2.159, -3.866e-6
-2.158, -3.860e-6
-2.157, -3.854e-6
-2.156, -3.851e-6
-2.155, -3.845e-6
-2.154, -3.835e-6
-2.153, -3.832e-6
-2.152, -3.823e-6
-2.151, -3.817e-6
-2.150, -3.808e-6
-2.149, -3.802e-6
-2.148, -3.796e-6
-2.147, -3.790e-6
-2.146, -3.783e-6
-2.145, -3.777e-6
-2.144, -3.774e-6
-2.143, -3.765e-6
-2.142, -3.759e-6
-2.141, -3.750e-6
-2.140, -3.744e-6
-2.139, -3.738e-6
-2.138, -3.731e-6
-2.137, -3.725e-6
-2.136, -3.719e-6
-2.135, -3.710e-6
-2.134, -3.704e-6
-2.133, -3.698e-6
-2.132, -3.689e-6
-2.131, -3.682e-6
-2.130, -3.676e-6
-2.129, -3.667e-6
-2.128, -3.661e-6
-2.127, -3.655e-6
-2.126, -3.649e-6
-2.125, -3.643e-6
-2.124, -3.637e-6
-2.123, -3.627e-6
-2.122, -3.621e-6
-2.121, -3.612e-6
-2.120, -3.606e-6
-2.119, -3.600e-6
-2.118, -3.597e-6
-2.117, -3.591e-6
-2.116, -3.584e-6
-2.115, -3.575e-6
-2.114, -3.569e-6
-2.113, -3.563e-6
-2.112, -3.554e-6
-2.111, -3.545e-6
-2.110, -3.539e-6
-2.109, -3.529e-6
-2.108, -3.523e-6
-2.107, -3.517e-6
-2.106, -3.511e-6
-2.105, -3.505e-6
-2.104, -3.499e-6
-2.103, -3.490e-6
-2.102, -3.483e-6
-2.101, -3.477e-6
-2.100, -3.468e-6
-2.099, -3.462e-6
-2.098, -3.453e-6
-2.097, -3.447e-6
-2.096, -3.441e-6
-2.095, -3.431e-6
-2.094, -3.428e-6
-2.093, -3.419e-6
-2.092, -3.410e-6
-2.091, -3.404e-6
-2.090, -3.398e-6
-2.089, -3.389e-6
-2.088, -3.379e-6
-2.087, -3.373e-6
-2.086, -3.364e-6
-2.085, -3.358e-6
-2.084, -3.352e-6
-2.083, -3.346e-6
-2.082, -3.340e-6
-2.081, -3.330e-6
-2.080, -3.324e-6
-2.079, -3.315e-6
-2.078, -3.309e-6
-2.077, -3.303e-6
-2.076, -3.294e-6
-2.075, -3.288e-6
-2.074, -3.281e-6
-2.073, -3.275e-6
-2.072, -3.266e-6
-2.071, -3.260e-6
-2.070, -3.251e-6
-2.069, -3.245e-6
-2.068, -3.239e-6
-2.067, -3.233e-6
-2.066, -3.223e-6
-2.065, -3.217e-6
-2.064, -3.211e-6
-2.063, -3.202e-6
-2.062, -3.196e-6
-2.061, -3.190e-6
-2.060, -3.180e-6
-2.059, -3.174e-6
-2.058, -3.168e-6
-2.057, -3.162e-6
-2.056, -3.153e-6
-2.055, -3.147e-6
-2.054, -3.141e-6
-2.053, -3.135e-6
-2.052, -3.125e-6
-2.051, -3.119e-6
-2.050, -3.113e-6
-2.049, -3.104e-6
-2.048, -3.101e-6
-2.047, -3.092e-6
-2.046, -3.086e-6
-2.045, -3.079e-6
-2.044, -3.073e-6
-2.043, -3.067e-6
-2.042, -3.061e-6
-2.041, -3.052e-6
-2.040, -3.046e-6
-2.039, -3.040e-6
-2.038, -3.034e-6
-2.037, -3.024e-6
-2.036, -3.021e-6
-2.035, -3.015e-6
-2.034, -3.009e-6
-2.033, -3.003e-6
-2.032, -2.994e-6
-2.031, -2.985e-6
-2.030, -2.978e-6
-2.029, -2.972e-6
-2.028, -2.966e-6
-2.027, -2.960e-6
-2.026, -2.954e-6
-2.025, -2.948e-6
-2.024, -2.942e-6
-2.023, -2.936e-6
-2.022, -2.929e-6
-2.021, -2.920e-6
-2.020, -2.917e-6
-2.019, -2.911e-6
-2.018, -2.905e-6
-2.017, -2.902e-6
-2.016, -2.896e-6
-2.015, -2.890e-6
-2.014, -2.887e-6
-2.013, -2.877e-6
-2.012, -2.871e-6
-2.011, -2.865e-6
-2.010, -2.859e-6
-2.009, -2.853e-6
-2.008, -2.847e-6
-2.007, -2.841e-6
-2.006, -2.838e-6
-2.005, -2.832e-6
-2.004, -2.828e-6
-2.003, -2.819e-6
-2.002, -2.813e-6
-2.001, -2.810e-6
-2.000, -2.804e-6
-1.999, -2.798e-6
-1.998, -2.795e-6
-1.997, -2.789e-6
-1.996, -2.786e-6
-1.995, -2.780e-6
-1.994, -2.776e-6
-1.993, -2.773e-6
-1.992, -2.764e-6
-1.991, -2.761e-6
-1.990, -2.755e-6
-1.989, -2.749e-6
-1.988, -2.743e-6
-1.987, -2.740e-6
-1.986, -2.734e-6
-1.985, -2.731e-6
-1.984, -2.727e-6
-1.983, -2.721e-6
-1.982, -2.715e-6
-1.981, -2.709e-6
-1.980, -2.706e-6
-1.979, -2.703e-6
-1.978, -2.697e-6
-1.977, -2.697e-6
-1.976, -2.691e-6
-1.975, -2.688e-6
-1.974, -2.685e-6
-1.973, -2.678e-6
-1.972, -2.672e-6
-1.971, -2.669e-6
-1.970, -2.663e-6
-1.969, -2.660e-6
-1.968, -2.654e-6
-1.967, -2.651e-6
-1.966, -2.648e-6
-1.965, -2.645e-6
-1.964, -2.642e-6
-1.963, -2.636e-6
-1.962, -2.630e-6
-1.961, -2.623e-6
-1.960, -2.620e-6
-1.959, -2.617e-6
-1.958, -2.614e-6
-1.957, -2.611e-6
-1.956, -2.611e-6
-1.955, -2.608e-6
-1.954, -2.605e-6
-1.953, -2.602e-6
-1.952, -2.599e-6
-1.951, -2.596e-6
-1.950, -2.590e-6
-1.949, -2.584e-6
-1.948, -2.581e-6
-1.947, -2.577e-6
-1.946, -2.574e-6
-1.945, -2.571e-6
-1.944, -2.571e-6
-1.943, -2.568e-6
-1.942, -2.562e-6
-1.941, -2.559e-6
-1.940, -2.556e-6
-1.939, -2.553e-6
-1.938, -2.550e-6
-1.937, -2.547e-6
-1.936, -2.547e-6
-1.935, -2.544e-6
-1.934, -2.544e-6
-1.933, -2.541e-6
-1.932, -2.538e-6
-1.931, -2.535e-6
-1.930, -2.532e-6
-1.929, -2.529e-6
-1.928, -2.525e-6
-1.927, -2.522e-6
-1.926, -2.519e-6
-1.925, -2.516e-6
-1.924, -2.516e-6
-1.923, -2.513e-6
-1.922, -2.510e-6
-1.921, -2.507e-6
-1.920, -2.504e-6
-1.919, -2.501e-6
-1.918, -2.501e-6
-1.917, -2.501e-6
-1.916, -2.498e-6
-1.915, -2.498e-6
-1.914, -2.495e-6
-1.913, -2.495e-6
-1.912, -2.492e-6
-1.911, -2.489e-6
-1.910, -2.486e-6
-1.909, -2.486e-6
-1.908, -2.483e-6
-1.907, -2.483e-6
-1.906, -2.480e-6
-1.905, -2.476e-6
-1.904, -2.476e-6
-1.903, -2.473e-6
-1.902, -2.470e-6
-1.901, -2.467e-6
-1.900, -2.467e-6
-1.899, -2.464e-6
-1.898, -2.461e-6
-1.897, -2.461e-6
-1.896, -2.461e-6
-1.895, -2.461e-6
-1.894, -2.458e-6
-1.893, -2.458e-6
-1.892, -2.455e-6
-1.891, -2.455e-6
-1.890, -2.452e-6
-1.889, -2.452e-6
-1.888, -2.452e-6
-1.887, -2.452e-6
-1.886, -2.452e-6
-1.885, -2.449e-6
-1.884, -2.449e-6
-1.883, -2.449e-6
-1.882, -2.443e-6
-1.881, -2.440e-6
-1.880, -2.440e-6
-1.879, -2.437e-6
-1.878, -2.437e-6
-1.877, -2.437e-6
-1.876, -2.437e-6
-1.875, -2.437e-6
-1.874, -2.434e-6
-1.873, -2.434e-6
-1.872, -2.431e-6
-1.871, -2.431e-6
-1.870, -2.431e-6
-1.869, -2.428e-6
-1.868, -2.428e-6
-1.867, -2.431e-6
-1.866, -2.431e-6
-1.865, -2.428e-6
-1.864, -2.428e-6
-1.863, -2.428e-6
-1.862, -2.424e-6
-1.861, -2.421e-6
-1.860, -2.418e-6
-1.859, -2.415e-6
-1.858, -2.415e-6
-1.857, -2.418e-6
-1.856, -2.415e-6
-1.855, -2.418e-6
-1.854, -2.415e-6
-1.853, -2.415e-6
-1.852, -2.412e-6
-1.851, -2.412e-6
-1.850, -2.412e-6
-1.849, -2.412e-6
-1.848, -2.409e-6
-1.847, -2.412e-6
-1.846, -2.412e-6
-1.845, -2.412e-6
-1.844, -2.412e-6
-1.843, -2.412e-6
-1.842, -2.409e-6
-1.841, -2.409e-6
-1.840, -2.406e-6
-1.839, -2.406e-6
-1.838, -2.406e-6
-1.837, -2.406e-6
-1.836, -2.406e-6
-1.835, -2.403e-6
-1.834, -2.403e-6
-1.833, -2.403e-6
-1.832, -2.403e-6
-1.831, -2.403e-6
-1.830, -2.400e-6
-1.829, -2.400e-6
-1.828, -2.400e-6
-1.827, -2.400e-6
-1.826, -2.403e-6
-1.825, -2.403e-6
-1.824, -2.403e-6
-1.823, -2.403e-6
-1.822, -2.403e-6
-1.821, -2.400e-6
-1.820, -2.400e-6
-1.819, -2.400e-6
-1.818, -2.397e-6
-1.817, -2.397e-6
-1.816, -2.400e-6
-1.815, -2.400e-6
-1.814, -2.400e-6
-1.813, -2.400e-6
-1.812, -2.400e-6
-1.811, -2.397e-6
-1.810, -2.394e-6
-1.809, -2.394e-6
-1.808, -2.394e-6
-1.807, -2.394e-6
-1.806, -2.397e-6
-1.805, -2.397e-6
-1.804, -2.397e-6
-1.803, -2.400e-6
-1.802, -2.397e-6
-1.801, -2.400e-6
-1.800, -2.397e-6
-1.799, -2.397e-6
-1.798, -2.397e-6
-1.797, -2.397e-6
-1.796, -2.397e-6
-1.795, -2.397e-6
-1.794, -2.397e-6
-1.793, -2.397e-6
-1.792, -2.397e-6
-1.791, -2.394e-6
-1.790, -2.394e-6
-1.789, -2.394e-6
-1.788, -2.391e-6
-1.787, -2.391e-6
-1.786, -2.394e-6
-1.785, -2.394e-6
-1.784, -2.394e-6
-1.783, -2.394e-6
-1.782, -2.394e-6
-1.781, -2.391e-6
-1.780, -2.391e-6
-1.779, -2.394e-6
-1.778, -2.391e-6
-1.777, -2.394e-6
-1.776, -2.391e-6
-1.775, -2.394e-6
-1.774, -2.394e-6
-1.773, -2.394e-6
-1.772, -2.391e-6
-1.771, -2.391e-6
-1.770, -2.388e-6
-1.769, -2.385e-6
-1.768, -2.385e-6
-1.767, -2.388e-6
-1.766, -2.388e-6
-1.765, -2.388e-6
-1.764, -2.388e-6
-1.763, -2.391e-6
-1.762, -2.388e-6
-1.761, -2.388e-6
-1.760, -2.388e-6
-1.759, -2.388e-6
-1.758, -2.388e-6
-1.757, -2.388e-6
-1.756, -2.388e-6
-1.755, -2.391e-6
-1.754, -2.391e-6
-1.753, -2.391e-6
-1.752, -2.391e-6
-1.751, -2.388e-6
-1.750, -2.388e-6
-1.749, -2.385e-6
-1.748, -2.385e-6
-1.747, -2.385e-6
-1.746, -2.385e-6
-1.745, -2.388e-6
-1.744, -2.388e-6
-1.743, -2.388e-6
-1.742, -2.388e-6
-1.741, -2.388e-6
-1.740, -2.385e-6
-1.739, -2.385e-6
-1.738, -2.385e-6
-1.737, -2.385e-6
-1.736, -2.388e-6
-1.735, -2.388e-6
-1.734, -2.388e-6
-1.733, -2.388e-6
-1.732, -2.388e-6
-1.731, -2.385e-6
-1.730, -2.385e-6
-1.729, -2.385e-6
-1.728, -2.385e-6
-1.727, -2.385e-6
-1.726, -2.385e-6
-1.725, -2.382e-6
-1.724, -2.382e-6
-1.723, -2.385e-6
-1.722, -2.382e-6
-1.721, -2.385e-6
-1.720, -2.385e-6
-1.719, -2.382e-6
-1.718, -2.382e-6
-1.717, -2.385e-6
-1.716, -2.385e-6
-1.715, -2.382e-6
-1.714, -2.382e-6
-1.713, -2.382e-6
-1.712, -2.382e-6
-1.711, -2.382e-6
-1.710, -2.382e-6
-1.709, -2.379e-6
-1.708, -2.382e-6
-1.707, -2.379e-6
-1.706, -2.382e-6
-1.705, -2.379e-6
-1.704, -2.379e-6
-1.703, -2.379e-6
-1.702, -2.379e-6
-1.701, -2.375e-6
-1.700, -2.375e-6
-1.699, -2.375e-6
-1.698, -2.375e-6
-1.697, -2.375e-6
-1.696, -2.375e-6
-1.695, -2.375e-6
-1.694, -2.375e-6
-1.693, -2.375e-6
-1.692, -2.372e-6
-1.691, -2.372e-6
-1.690, -2.369e-6
-1.689, -2.369e-6
-1.688, -2.366e-6
-1.687, -2.369e-6
-1.686, -2.366e-6
-1.685, -2.366e-6
-1.684, -2.366e-6
-1.683, -2.366e-6
-1.682, -2.363e-6
-1.681, -2.360e-6
-1.680, -2.360e-6
-1.679, -2.357e-6
-1.678, -2.357e-6
-1.677, -2.357e-6
-1.676, -2.357e-6
-1.675, -2.357e-6
-1.674, -2.354e-6
-1.673, -2.354e-6
-1.672, -2.351e-6
-1.671, -2.348e-6
-1.670, -2.348e-6
-1.669, -2.345e-6
-1.668, -2.342e-6
-1.667, -2.345e-6
-1.666, -2.342e-6
-1.665, -2.339e-6
-1.664, -2.339e-6
-1.663, -2.336e-6
-1.662, -2.333e-6
-1.661, -2.330e-6
-1.660, -2.327e-6
-1.659, -2.323e-6
-1.658, -2.320e-6
-1.657, -2.320e-6
-1.656, -2.320e-6
-1.655, -2.317e-6
-1.654, -2.311e-6
-1.653, -2.311e-6
-1.652, -2.308e-6
-1.651, -2.305e-6
-1.650, -2.302e-6
-1.649, -2.299e-6
-1.648, -2.296e-6
-1.647, -2.293e-6
-1.646, -2.290e-6
-1.645, -2.284e-6
-1.644, -2.281e-6
-1.643, -2.278e-6
-1.642, -2.271e-6
-1.641, -2.265e-6
-1.640, -2.262e-6
-1.639, -2.256e-6
-1.638, -2.256e-6
-1.637, -2.250e-6
-1.636, -2.247e-6
-1.635, -2.241e-6
-1.634, -2.232e-6
-1.633, -2.229e-6
-1.632, -2.219e-6
-1.631, -2.213e-6
-1.630, -2.207e-6
-1.629, -2.198e-6
-1.628, -2.192e-6
-1.627, -2.189e-6
-1.626, -2.180e-6
-1.625, -2.173e-6
-1.624, -2.164e-6
-1.623, -2.155e-6
-1.622, -2.146e-6
-1.621, -2.134e-6
-1.620, -2.124e-6
-1.619, -2.115e-6
-1.618, -2.103e-6
-1.617, -2.094e-6
-1.616, -2.085e-6
-1.615, -2.076e-6
-1.614, -2.063e-6
-1.613, -2.054e-6
-1.612, -2.036e-6
-1.611, -2.023e-6
-1.610, -2.011e-6
-1.609, -1.996e-6
-1.608, -1.978e-6
-1.607, -1.965e-6
-1.606, -1.953e-6
-1.605, -1.938e-6
-1.604, -1.922e-6
-1.603, -1.907e-6
-1.602, -1.889e-6
-1.601, -1.870e-6
-1.600, -1.849e-6
-1.599, -1.831e-6
-1.598, -1.809e-6
-1.597, -1.788e-6
-1.596, -1.769e-6
-1.595, -1.748e-6
-1.594, -1.724e-6
-1.593, -1.708e-6
-1.592, -1.681e-6
-1.591, -1.653e-6
-1.590, -1.626e-6
-1.589, -1.601e-6
-1.588, -1.570e-6
-1.587, -1.546e-6
-1.586, -1.515e-6
-1.585, -1.488e-6
-1.584, -1.460e-6
-1.583, -1.433e-6
-1.582, -1.399e-6
-1.581, -1.362e-6
-1.580, -1.329e-6
-1.579, -1.298e-6
-1.578, -1.258e-6
-1.577, -1.222e-6
-1.576, -1.188e-6
-1.575, -1.151e-6
-1.574, -1.111e-6
-1.573, -1.078e-6
-1.572, -1.035e-6
-1.571, -9.889e-7
-1.570, -9.461e-7
-1.569, -9.032e-7
-1.568, -8.543e-7
-1.567, -8.114e-7
-1.566, -7.686e-7
-1.565, -7.196e-7
-1.564, -6.676e-7
-1.563, -6.247e-7
-1.562, -5.757e-7
-1.561, -5.176e-7
-1.560, -4.625e-7
-1.559, -4.166e-7
-1.558, -3.584e-7
-1.557, -3.033e-7
-1.556, -2.513e-7
-1.555, -1.962e-7
-1.554, -1.350e-7
-1.553, -8.906e-8
-1.552, -3.091e-8
-1.551, 3.337e-8
-1.550, 8.847e-8
-1.549, 1.466e-7
-1.548, 2.140e-7
-1.547, 2.691e-7
-1.546, 3.333e-7
-1.545, 3.945e-7
-1.544, 4.558e-7
-1.543, 5.109e-7
-1.542, 5.721e-7
-1.541, 6.363e-7
-1.540, 7.037e-7
-1.539, 7.588e-7
-1.538, 8.322e-7
-1.537, 8.935e-7
-1.536, 9.547e-7
-1.535, 1.025e-6
-1.534, 1.092e-6
-1.533, 1.141e-6
-1.532, 1.203e-6
-1.531, 1.267e-6
-1.530, 1.328e-6
-1.529, 1.383e-6
-1.528, 1.447e-6
-1.527, 1.506e-6
-1.526, 1.564e-6
-1.525, 1.619e-6
-1.524, 1.677e-6
-1.523, 1.726e-6
-1.522, 1.778e-6
-1.521, 1.833e-6
-1.520, 1.885e-6
-1.519, 1.931e-6
-1.518, 1.992e-6
-1.517, 2.041e-6
-1.516, 2.084e-6
-1.515, 2.133e-6
-1.514, 2.179e-6
-1.513, 2.213e-6
-1.512, 2.256e-6
-1.511, 2.298e-6
-1.510, 2.341e-6
-1.509, 2.381e-6
-1.508, 2.418e-6
-1.507, 2.454e-6
-1.506, 2.488e-6
-1.505, 2.510e-6
-1.504, 2.543e-6
-1.503, 2.565e-6
-1.502, 2.589e-6
-1.501, 2.617e-6
-1.500, 2.644e-6
-1.499, 2.660e-6
-1.498, 2.693e-6
-1.497, 2.705e-6
-1.496, 2.718e-6
-1.495, 2.733e-6
-1.494, 2.748e-6
-1.493, 2.751e-6
-1.492, 2.764e-6
-1.491, 2.773e-6
-1.490, 2.782e-6
-1.489, 2.788e-6
-1.488, 2.797e-6
-1.487, 2.800e-6
-1.486, 2.800e-6
-1.485, 2.800e-6
-1.484, 2.803e-6
-1.483, 2.794e-6
-1.482, 2.791e-6
-1.481, 2.791e-6
-1.480, 2.785e-6
-1.479, 2.776e-6
-1.478, 2.779e-6
-1.477, 2.767e-6
-1.476, 2.754e-6
-1.475, 2.745e-6
-1.474, 2.736e-6
-1.473, 2.721e-6
-1.472, 2.709e-6
-1.471, 2.696e-6
-1.470, 2.684e-6
-1.469, 2.669e-6
-1.468, 2.660e-6
-1.467, 2.641e-6
-1.466, 2.626e-6
-1.465, 2.608e-6
-1.464, 2.592e-6
-1.463, 2.571e-6
-1.462, 2.552e-6
-1.461, 2.540e-6
-1.460, 2.519e-6
-1.459, 2.503e-6
-1.458, 2.491e-6
-1.457, 2.470e-6
-1.456, 2.445e-6
-1.455, 2.430e-6
-1.454, 2.409e-6
-1.453, 2.387e-6
-1.452, 2.369e-6
-1.451, 2.347e-6
-1.450, 2.329e-6
-1.449, 2.308e-6
-1.448, 2.292e-6
-1.447, 2.271e-6
-1.446, 2.249e-6
-1.445, 2.228e-6
-1.444, 2.210e-6
-1.443, 2.188e-6
-1.442, 2.170e-6
-1.441, 2.151e-6
-1.440, 2.130e-6
-1.439, 2.112e-6
-1.438, 2.096e-6
-1.437, 2.075e-6
-1.436, 2.057e-6
-1.435, 2.035e-6
-1.434, 2.017e-6
-1.433, 2.001e-6
-1.432, 1.983e-6
-1.431, 1.962e-6
-1.430, 1.946e-6
-1.429, 1.928e-6
-1.428, 1.913e-6
-1.427, 1.894e-6
-1.426, 1.873e-6
-1.425, 1.855e-6
-1.424, 1.839e-6
-1.423, 1.818e-6
-1.422, 1.806e-6
-1.421, 1.790e-6
-1.420, 1.772e-6
-1.419, 1.757e-6
-1.418, 1.744e-6
-1.417, 1.726e-6
-1.416, 1.711e-6
-1.415, 1.692e-6
-1.414, 1.677e-6
-1.413, 1.662e-6
-1.412, 1.646e-6
-1.411, 1.634e-6
-1.410, 1.619e-6
-1.409, 1.607e-6
-1.408, 1.594e-6
-1.407, 1.579e-6
-1.406, 1.564e-6
-1.405, 1.548e-6
-1.404, 1.536e-6
-1.403, 1.521e-6
-1.402, 1.509e-6
-1.401, 1.496e-6
-1.400, 1.484e-6
-1.399, 1.472e-6
-1.398, 1.460e-6
-1.397, 1.447e-6
-1.396, 1.435e-6
-1.395, 1.423e-6
-1.394, 1.411e-6
-1.393, 1.398e-6
-1.392, 1.386e-6
-1.391, 1.377e-6
-1.390, 1.368e-6
-1.389, 1.356e-6
-1.388, 1.346e-6
-1.387, 1.334e-6
-1.386, 1.322e-6
-1.385, 1.313e-6
-1.384, 1.301e-6
-1.383, 1.288e-6
-1.382, 1.282e-6
-1.381, 1.273e-6
-1.380, 1.264e-6
-1.379, 1.252e-6
-1.378, 1.245e-6
-1.377, 1.233e-6
-1.376, 1.224e-6
-1.375, 1.212e-6
-1.374, 1.206e-6
-1.373, 1.193e-6
-1.372, 1.187e-6
-1.371, 1.178e-6
-1.370, 1.172e-6
-1.369, 1.163e-6
-1.368, 1.157e-6
-1.367, 1.148e-6
-1.366, 1.138e-6
-1.365, 1.129e-6
-1.364, 1.120e-6
-1.363, 1.111e-6
-1.362, 1.105e-6
-1.361, 1.099e-6
-1.360, 1.092e-6
-1.359, 1.083e-6
-1.358, 1.077e-6
-1.357, 1.071e-6
-1.356, 1.062e-6
-1.355, 1.053e-6
-1.354, 1.046e-6
-1.353, 1.040e-6
-1.352, 1.031e-6
-1.351, 1.028e-6
-1.350, 1.022e-6
-1.349, 1.013e-6
-1.348, 1.010e-6
-1.347, 1.001e-6
-1.346, 9.945e-7
-1.345, 9.883e-7
-1.344, 9.822e-7
-1.343, 9.730e-7
-1.342, 9.700e-7
-1.341, 9.639e-7
-1.340, 9.577e-7
-1.339, 9.516e-7
-1.338, 9.485e-7
-1.337, 9.394e-7
-1.336, 9.332e-7
-1.335, 9.302e-7
-1.334, 9.241e-7
-1.333, 9.179e-7
-1.332, 9.118e-7
-1.331, 9.088e-7
-1.330, 9.026e-7
-1.329, 8.965e-7
-1.328, 8.935e-7
-1.327, 8.873e-7
-1.326, 8.812e-7
-1.325, 8.751e-7
-1.324, 8.720e-7
-1.323, 8.628e-7
-1.322, 8.628e-7
-1.321, 8.567e-7
-1.320, 8.537e-7
-1.319, 8.475e-7
-1.318, 8.445e-7
-1.317, 8.384e-7
-1.316, 8.322e-7
-1.315, 8.292e-7
-1.314, 8.231e-7
-1.313, 8.169e-7
-1.312, 8.139e-7
-1.311, 8.108e-7
-1.310, 8.078e-7
-1.309, 8.047e-7
-1.308, 8.016e-7
-1.307, 7.955e-7
-1.306, 7.894e-7
-1.305, 7.863e-7
-1.304, 7.833e-7
-1.303, 7.771e-7
-1.302, 7.741e-7
-1.301, 7.710e-7
-1.300, 7.680e-7
-1.299, 7.618e-7
-1.298, 7.618e-7
-1.297, 7.557e-7
-1.296, 7.496e-7
-1.295, 7.465e-7
-1.294, 7.435e-7
-1.293, 7.374e-7
-1.292, 7.343e-7
-1.291, 7.343e-7
-1.290, 7.282e-7
-1.289, 7.251e-7
-1.288, 7.251e-7
-1.287, 7.190e-7
-1.286, 7.159e-7
-1.285, 7.129e-7
-1.284, 7.067e-7
-1.283, 7.037e-7
-1.282, 7.006e-7
-1.281, 6.976e-7
-1.280, 6.976e-7
-1.279, 6.945e-7
-1.278, 6.914e-7
-1.277, 6.884e-7
-1.276, 6.823e-7
-1.275, 6.792e-7
-1.274, 6.761e-7
-1.273, 6.700e-7
-1.272, 6.700e-7
-1.271, 6.670e-7
-1.270, 6.639e-7
-1.269, 6.608e-7
-1.268, 6.608e-7
-1.267, 6.547e-7
-1.266, 6.517e-7
-1.265, 6.517e-7
-1.264, 6.455e-7
-1.263, 6.425e-7
-1.262, 6.394e-7
-1.261, 6.394e-7
-1.260, 6.363e-7
-1.259, 6.333e-7
-1.258, 6.333e-7
-1.257, 6.302e-7
-1.256, 6.241e-7
-1.255, 6.210e-7
-1.254, 6.210e-7
-1.253, 6.149e-7
-1.252, 6.149e-7
-1.251, 6.149e-7
-1.250, 6.119e-7
-1.249, 6.088e-7
-1.248, 6.088e-7
-1.247, 6.027e-7
-1.246, 5.996e-7
-1.245, 5.966e-7
-1.244, 5.935e-7
-1.243, 5.904e-7
-1.242, 5.904e-7
-1.241, 5.874e-7
-1.240, 5.874e-7
-1.239, 5.843e-7
-1.238, 5.843e-7
-1.237, 5.813e-7
-1.236, 5.782e-7
-1.235, 5.751e-7
-1.234, 5.721e-7
-1.233, 5.690e-7
-1.232, 5.660e-7
-1.231, 5.660e-7
-1.230, 5.629e-7
-1.229, 5.598e-7
-1.228, 5.568e-7
-1.227, 5.568e-7
-1.226, 5.537e-7
-1.225, 5.537e-7
-1.224, 5.506e-7
-1.223, 5.476e-7
-1.222, 5.445e-7
-1.221, 5.445e-7
-1.220, 5.415e-7
-1.219, 5.415e-7
-1.218, 5.415e-7
-1.217, 5.384e-7
-1.216, 5.353e-7
-1.215, 5.323e-7
-1.214, 5.292e-7
-1.213, 5.262e-7
-1.212, 5.262e-7
-1.211, 5.262e-7
-1.210, 5.231e-7
-1.209, 5.200e-7
-1.208, 5.200e-7
-1.207, 5.170e-7
-1.206, 5.139e-7
-1.205, 5.139e-7
-1.204, 5.109e-7
-1.203, 5.078e-7
-1.202, 5.078e-7
-1.201, 5.047e-7
-1.200, 5.047e-7
-1.199, 5.017e-7
-1.198, 5.047e-7
-1.197, 5.017e-7
-1.196, 4.986e-7
-1.195, 4.956e-7
-1.194, 4.925e-7
-1.193, 4.894e-7
-1.192, 4.894e-7
-1.191, 4.894e-7
-1.190, 4.864e-7
-1.189, 4.864e-7
-1.188, 4.864e-7
-1.187, 4.833e-7
-1.186, 4.802e-7
-1.185, 4.772e-7
-1.184, 4.772e-7
-1.183, 4.741e-7
-1.182, 4.741e-7
-1.181, 4.741e-7
-1.180, 4.711e-7
-1.179, 4.711e-7
-1.178, 4.711e-7
-1.177, 4.680e-7
-1.176, 4.649e-7
-1.175, 4.619e-7
-1.174, 4.619e-7
-1.173, 4.588e-7
-1.172, 4.588e-7
-1.171, 4.588e-7
-1.170, 4.558e-7
-1.169, 4.558e-7
-1.168, 4.558e-7
-1.167, 4.527e-7
-1.166, 4.496e-7
-1.165, 4.496e-7
-1.164, 4.466e-7
-1.163, 4.435e-7
-1.162, 4.435e-7
-1.161, 4.435e-7
-1.160, 4.435e-7
-1.159, 4.405e-7
-1.158, 4.405e-7
-1.157, 4.405e-7
-1.156, 4.374e-7
-1.155, 4.343e-7
-1.154, 4.343e-7
-1.153, 4.313e-7
-1.152, 4.343e-7
-1.151, 4.313e-7
-1.150, 4.313e-7
-1.149, 4.282e-7
-1.148, 4.282e-7
-1.147, 4.252e-7
-1.146, 4.252e-7
-1.145, 4.221e-7
-1.144, 4.221e-7
-1.143, 4.190e-7
-1.142, 4.190e-7
-1.141, 4.190e-7
-1.140, 4.190e-7
-1.139, 4.160e-7
-1.138, 4.160e-7
-1.137, 4.160e-7
-1.136, 4.129e-7
-1.135, 4.129e-7
-1.134, 4.098e-7
-1.133, 4.068e-7
-1.132, 4.068e-7
-1.131, 4.068e-7
-1.130, 4.068e-7
-1.129, 4.068e-7
-1.128, 4.037e-7
-1.127, 4.037e-7
-1.126, 4.037e-7
-1.125, 4.007e-7
-1.124, 4.007e-7
-1.123, 3.945e-7
-1.122, 3.945e-7
-1.121, 3.945e-7
-1.120, 3.945e-7
-1.119, 3.945e-7
-1.118, 3.945e-7
-1.117, 3.945e-7
-1.116, 3.915e-7
-1.115, 3.884e-7
-1.114, 3.884e-7
-1.113, 3.854e-7
-1.112, 3.854e-7
-1.111, 3.854e-7
-1.110, 3.854e-7
-1.109, 3.854e-7
-1.108, 3.854e-7
-1.107, 3.823e-7
-1.106, 3.792e-7
-1.105, 3.792e-7
-1.104, 3.762e-7
-1.103, 3.762e-7
-1.102, 3.762e-7
-1.101, 3.762e-7
-1.100, 3.762e-7
-1.099, 3.731e-7
-1.098, 3.762e-7
-1.097, 3.731e-7
-1.096, 3.701e-7
-1.095, 3.701e-7
-1.094, 3.670e-7
-1.093, 3.639e-7
-1.092, 3.639e-7
-1.091, 3.670e-7
-1.090, 3.639e-7
-1.089, 3.639e-7
-1.088, 3.639e-7
-1.087, 3.609e-7
-1.086, 3.609e-7
-1.085, 3.609e-7
-1.084, 3.609e-7
-1.083, 3.578e-7
-1.082, 3.578e-7
-1.081, 3.578e-7
-1.080, 3.548e-7
-1.079, 3.548e-7
-1.078, 3.578e-7
-1.077, 3.548e-7
-1.076, 3.548e-7
-1.075, 3.517e-7
-1.074, 3.486e-7
-1.073, 3.486e-7
-1.072, 3.486e-7
-1.071, 3.486e-7
-1.070, 3.486e-7
-1.069, 3.456e-7
-1.068, 3.486e-7
-1.067, 3.456e-7
-1.066, 3.425e-7
-1.065, 3.425e-7
-1.064, 3.425e-7
-1.063, 3.395e-7
-1.062, 3.395e-7
-1.061, 3.395e-7
-1.060, 3.395e-7
-1.059, 3.395e-7
-1.058, 3.425e-7
-1.057, 3.395e-7
-1.056, 3.364e-7
-1.055, 3.364e-7
-1.054, 3.333e-7
-1.053, 3.333e-7
-1.052, 3.333e-7
-1.051, 3.333e-7
-1.050, 3.333e-7
-1.049, 3.333e-7
-1.048, 3.333e-7
-1.047, 3.333e-7
-1.046, 3.303e-7
-1.045, 3.303e-7
-1.044, 3.272e-7
-1.043, 3.241e-7
-1.042, 3.272e-7
-1.041, 3.272e-7
-1.040, 3.241e-7
-1.039, 3.241e-7
-1.038, 3.272e-7
-1.037, 3.241e-7
-1.036, 3.211e-7
-1.035, 3.211e-7
-1.034, 3.211e-7
-1.033, 3.180e-7
-1.032, 3.180e-7
-1.031, 3.180e-7
-1.030, 3.180e-7
-1.029, 3.180e-7
-1.028, 3.211e-7
-1.027, 3.180e-7
-1.026, 3.180e-7
-1.025, 3.150e-7
-1.024, 3.150e-7
-1.023, 3.150e-7
-1.022, 3.119e-7
-1.021, 3.150e-7
-1.020, 3.119e-7
-1.019, 3.119e-7
-1.018, 3.150e-7
-1.017, 3.119e-7
-1.016, 3.119e-7
-1.015, 3.088e-7
-1.014, 3.088e-7
-1.013, 3.058e-7
-1.012, 3.058e-7
-1.011, 3.058e-7
-1.010, 3.088e-7
-1.009, 3.058e-7
-1.008, 3.088e-7
-1.007, 3.058e-7
-1.006, 3.027e-7
-1.005, 3.027e-7
-1.004, 3.027e-7
-1.003, 2.997e-7
-1.002, 2.997e-7
-1.001, 2.997e-7
-1.000, 2.997e-7
-0.999, 2.997e-7
-0.998, 3.027e-7
-0.997, 2.997e-7
-0.996, 2.997e-7
-0.995, 2.966e-7
-0.994, 2.966e-7
-0.993, 2.935e-7
-0.992, 2.935e-7
-0.991, 2.935e-7
-0.990, 2.966e-7
-0.989, 2.935e-7
-0.988, 2.966e-7
-0.987, 2.935e-7
-0.986, 2.935e-7
-0.985, 2.905e-7
-0.984, 2.905e-7
-0.983, 2.905e-7
-0.982, 2.905e-7
-0.981, 2.905e-7
-0.980, 2.905e-7
-0.979, 2.905e-7
-0.978, 2.905e-7
-0.977, 2.905e-7
-0.976, 2.874e-7
-0.975, 2.874e-7
-0.974, 2.874e-7
-0.973, 2.874e-7
-0.972, 2.844e-7
-0.971, 2.874e-7
-0.970, 2.874e-7
-0.969, 2.844e-7
-0.968, 2.874e-7
-0.967, 2.844e-7
-0.966, 2.844e-7
-0.965, 2.844e-7
-0.964, 2.813e-7
-0.963, 2.813e-7
-0.962, 2.813e-7
-0.961, 2.813e-7
-0.960, 2.813e-7
-0.959, 2.813e-7
-0.958, 2.813e-7
-0.957, 2.813e-7
-0.956, 2.813e-7
-0.955, 2.782e-7
-0.954, 2.782e-7
-0.953, 2.752e-7
-0.952, 2.782e-7
-0.951, 2.782e-7
-0.950, 2.782e-7
-0.949, 2.782e-7
-0.948, 2.782e-7
-0.947, 2.782e-7
-0.946, 2.752e-7
-0.945, 2.752e-7
-0.944, 2.752e-7
-0.943, 2.721e-7
-0.942, 2.721e-7
-0.941, 2.752e-7
-0.940, 2.721e-7
-0.939, 2.721e-7
-0.938, 2.721e-7
-0.937, 2.721e-7
-0.936, 2.721e-7
-0.935, 2.691e-7
-0.934, 2.691e-7
-0.933, 2.691e-7
-0.932, 2.691e-7
-0.931, 2.691e-7
-0.930, 2.691e-7
-0.929, 2.691e-7
-0.928, 2.721e-7
-0.927, 2.691e-7
-0.926, 2.660e-7
-0.925, 2.691e-7
-0.924, 2.660e-7
-0.923, 2.629e-7
-0.922, 2.660e-7
-0.921, 2.691e-7
-0.920, 2.660e-7
-0.919, 2.660e-7
-0.918, 2.660e-7
-0.917, 2.660e-7
-0.916, 2.629e-7
-0.915, 2.629e-7
-0.914, 2.629e-7
-0.913, 2.599e-7
-0.912, 2.629e-7
-0.911, 2.629e-7
-0.910, 2.629e-7
-0.909, 2.629e-7
-0.908, 2.629e-7
-0.907, 2.629e-7
-0.906, 2.599e-7
-0.905, 2.599e-7
-0.904, 2.599e-7
-0.903, 2.568e-7
-0.902, 2.599e-7
-0.901, 2.599e-7
-0.900, 2.599e-7
-0.899, 2.568e-7
-0.898, 2.599e-7
-0.897, 2.599e-7
-0.896, 2.599e-7
-0.895, 2.568e-7
-0.894, 2.568e-7
-0.893, 2.537e-7
-0.892, 2.568e-7
-0.891, 2.568e-7
-0.890, 2.568e-7
-0.889, 2.568e-7
-0.888, 2.599e-7
-0.887, 2.568e-7
-0.886, 2.568e-7
-0.885, 2.537e-7
-0.884, 2.537e-7
-0.883, 2.507e-7
-0.882, 2.537e-7
-0.881, 2.537e-7
-0.880, 2.537e-7
-0.879, 2.537e-7
-0.878, 2.568e-7
-0.877, 2.537e-7
-0.876, 2.537e-7
-0.875, 2.507e-7
-0.874, 2.537e-7
-0.873, 2.507e-7
-0.872, 2.507e-7
-0.871, 2.537e-7
-0.870, 2.537e-7
-0.869, 2.537e-7
-0.868, 2.537e-7
-0.867, 2.507e-7
-0.866, 2.507e-7
-0.865, 2.507e-7
-0.864, 2.507e-7
-0.863, 2.476e-7
-0.862, 2.476e-7
-0.861, 2.476e-7
-0.860, 2.507e-7
-0.859, 2.476e-7
-0.858, 2.507e-7
-0.857, 2.507e-7
-0.856, 2.476e-7
-0.855, 2.476e-7
-0.854, 2.476e-7
-0.853, 2.446e-7
-0.852, 2.476e-7
-0.851, 2.476e-7
-0.850, 2.476e-7
-0.849, 2.476e-7
-0.848, 2.476e-7
-0.847, 2.476e-7
-0.846, 2.476e-7
-0.845, 2.476e-7
-0.844, 2.476e-7
-0.843, 2.446e-7
-0.842, 2.446e-7
-0.841, 2.446e-7
-0.840, 2.476e-7
-0.839, 2.446e-7
-0.838, 2.476e-7
-0.837, 2.446e-7
-0.836, 2.446e-7
-0.835, 2.446e-7
-0.834, 2.446e-7
-0.833, 2.415e-7
-0.832, 2.415e-7
-0.831, 2.446e-7
-0.830, 2.446e-7
-0.829, 2.446e-7
-0.828, 2.446e-7
-0.827, 2.446e-7
-0.826, 2.446e-7
-0.825, 2.415e-7
-0.824, 2.446e-7
-0.823, 2.415e-7
-0.822, 2.415e-7
-0.821, 2.415e-7
-0.820, 2.446e-7
-0.819, 2.415e-7
-0.818, 2.446e-7
-0.817, 2.415e-7
-0.816, 2.415e-7
-0.815, 2.415e-7
-0.814, 2.415e-7
-0.813, 2.384e-7
-0.812, 2.415e-7
-0.811, 2.415e-7
-0.810, 2.415e-7
-0.809, 2.415e-7
-0.808, 2.446e-7
-0.807, 2.446e-7
-0.806, 2.415e-7
-0.805, 2.415e-7
-0.804, 2.415e-7
-0.803, 2.384e-7
-0.802, 2.384e-7
-0.801, 2.415e-7
-0.800, 2.415e-7
-0.799, 2.415e-7
-0.798, 2.446e-7
-0.797, 2.415e-7
-0.796, 2.415e-7
-0.795, 2.415e-7
-0.794, 2.415e-7
-0.793, 2.415e-7
-0.792, 2.415e-7
-0.791, 2.415e-7
-0.790, 2.415e-7
-0.789, 2.415e-7
-0.788, 2.446e-7
-0.787, 2.415e-7
-0.786, 2.415e-7
-0.785, 2.415e-7
-0.784, 2.415e-7
-0.783, 2.384e-7
-0.782, 2.384e-7
-0.781, 2.415e-7
-0.780, 2.415e-7
-0.779, 2.415e-7
-0.778, 2.446e-7
-0.777, 2.415e-7
-0.776, 2.415e-7
-0.775, 2.415e-7
-0.774, 2.415e-7
-0.773, 2.384e-7
-0.772, 2.384e-7
-0.771, 2.415e-7
-0.770, 2.415e-7
-0.769, 2.415e-7
-0.768, 2.446e-7
-0.767, 2.446e-7
-0.766, 2.415e-7
-0.765, 2.415e-7
-0.764, 2.415e-7
-0.763, 2.384e-7
-0.762, 2.415e-7
-0.761, 2.415e-7
-0.760, 2.415e-7
-0.759, 2.415e-7
-0.758, 2.446e-7
-0.757, 2.415e-7
-0.756, 2.415e-7
-0.755, 2.415e-7
-0.754, 2.415e-7
-0.753, 2.384e-7
-0.752, 2.415e-7
-0.751, 2.415e-7
-0.750, 2.415e-7
-0.749, 2.415e-7
-0.748, 2.446e-7
-0.747, 2.446e-7
-0.746, 2.446e-7
-0.745, 2.415e-7
-0.744, 2.446e-7
-0.743, 2.415e-7
-0.742, 2.415e-7
-0.741, 2.446e-7
-0.740, 2.446e-7
-0.739, 2.446e-7
-0.738, 2.476e-7
-0.737, 2.446e-7
-0.736, 2.446e-7
-0.735, 2.446e-7
-0.734, 2.446e-7
-0.733, 2.415e-7
-0.732, 2.446e-7
-0.731, 2.446e-7
-0.730, 2.446e-7
-0.729, 2.446e-7
-0.728, 2.476e-7
-0.727, 2.476e-7
-0.726, 2.446e-7
-0.725, 2.446e-7
-0.724, 2.476e-7
-0.723, 2.446e-7
-0.722, 2.446e-7
-0.721, 2.476e-7
-0.720, 2.476e-7
-0.719, 2.476e-7
-0.718, 2.476e-7
-0.717, 2.476e-7
-0.716, 2.507e-7
-0.715, 2.476e-7
-0.714, 2.476e-7
-0.713, 2.476e-7
-0.712, 2.476e-7
-0.711, 2.476e-7
-0.710, 2.507e-7
-0.709, 2.507e-7
-0.708, 2.537e-7
-0.707, 2.537e-7
-0.706, 2.507e-7
-0.705, 2.507e-7
-0.704, 2.507e-7
-0.703, 2.476e-7
-0.702, 2.507e-7
-0.701, 2.537e-7
-0.700, 2.537e-7
-0.699, 2.537e-7
-0.698, 2.568e-7
-0.697, 2.537e-7
-0.696, 2.537e-7
-0.695, 2.537e-7
-0.694, 2.537e-7
-0.693, 2.537e-7
-0.692, 2.537e-7
-0.691, 2.568e-7
-0.690, 2.568e-7
-0.689, 2.568e-7
-0.688, 2.599e-7
-0.687, 2.599e-7
-0.686, 2.568e-7
-0.685, 2.568e-7
-0.684, 2.568e-7
-0.683, 2.568e-7
-0.682, 2.599e-7
-0.681, 2.599e-7
-0.680, 2.599e-7
-0.679, 2.599e-7
-0.678, 2.599e-7
-0.677, 2.629e-7
-0.676, 2.629e-7
-0.675, 2.599e-7
-0.674, 2.599e-7
-0.673, 2.599e-7
-0.672, 2.599e-7
-0.671, 2.629e-7
-0.670, 2.660e-7
-0.669, 2.629e-7
-0.668, 2.660e-7
-0.667, 2.660e-7
-0.666, 2.660e-7
-0.665, 2.660e-7
-0.664, 2.660e-7
-0.663, 2.660e-7
-0.662, 2.660e-7
-0.661, 2.660e-7
-0.660, 2.691e-7
-0.659, 2.691e-7
-0.658, 2.721e-7
-0.657, 2.691e-7
-0.656, 2.721e-7
-0.655, 2.691e-7
-0.654, 2.691e-7
-0.653, 2.691e-7
-0.652, 2.691e-7
-0.651, 2.721e-7
-0.650, 2.752e-7
-0.649, 2.721e-7
-0.648, 2.752e-7
-0.647, 2.752e-7
-0.646, 2.752e-7
-0.645, 2.752e-7
-0.644, 2.752e-7
-0.643, 2.752e-7
-0.642, 2.782e-7
-0.641, 2.782e-7
-0.640, 2.813e-7
-0.639, 2.813e-7
-0.638, 2.813e-7
-0.637, 2.813e-7
-0.636, 2.813e-7
-0.635, 2.813e-7
-0.634, 2.813e-7
-0.633, 2.813e-7
-0.632, 2.813e-7
-0.631, 2.844e-7
-0.630, 2.844e-7
-0.629, 2.874e-7
-0.628, 2.874e-7
-0.627, 2.874e-7
-0.626, 2.874e-7
-0.625, 2.874e-7
-0.624, 2.905e-7
-0.623, 2.874e-7
-0.622, 2.905e-7
-0.621, 2.905e-7
-0.620, 2.905e-7
-0.619, 2.935e-7
-0.618, 2.935e-7
-0.617, 2.935e-7
-0.616, 2.966e-7
-0.615, 2.935e-7
-0.614, 2.966e-7
-0.613, 2.966e-7
-0.612, 2.966e-7
-0.611, 2.997e-7
-0.610, 2.997e-7
-0.609, 2.997e-7
-0.608, 3.027e-7
-0.607, 3.027e-7
-0.606, 3.027e-7
-0.605, 3.027e-7
-0.604, 3.027e-7
-0.603, 3.027e-7
-0.602, 3.058e-7
-0.601, 3.058e-7
-0.600, 3.088e-7
-0.599, 3.088e-7
-0.598, 3.119e-7
-0.597, 3.119e-7
-0.596, 3.119e-7
-0.595, 3.119e-7
-0.594, 3.119e-7
-0.593, 3.119e-7
-0.592, 3.150e-7
-0.591, 3.150e-7
-0.590, 3.180e-7
-0.589, 3.180e-7
-0.588, 3.211e-7
-0.587, 3.211e-7
-0.586, 3.211e-7
-0.585, 3.211e-7
-0.584, 3.211e-7
-0.583, 3.211e-7
-0.582, 3.211e-7
-0.581, 3.241e-7
-0.580, 3.272e-7
-0.579, 3.272e-7
-0.578, 3.303e-7
-0.577, 3.303e-7
-0.576, 3.303e-7
-0.575, 3.303e-7
-0.574, 3.333e-7
-0.573, 3.303e-7
-0.572, 3.333e-7
-0.571, 3.333e-7
-0.570, 3.364e-7
-0.569, 3.364e-7
-0.568, 3.395e-7
-0.567, 3.395e-7
-0.566, 3.395e-7
-0.565, 3.395e-7
-0.564, 3.395e-7
-0.563, 3.395e-7
-0.562, 3.425e-7
-0.561, 3.425e-7
-0.560, 3.456e-7
-0.559, 3.456e-7
-0.558, 3.486e-7
-0.557, 3.486e-7
-0.556, 3.486e-7
-0.555, 3.486e-7
-0.554, 3.517e-7
-0.553, 3.486e-7
-0.552, 3.517e-7
-0.551, 3.548e-7
-0.550, 3.548e-7
-0.549, 3.548e-7
-0.548, 3.578e-7
-0.547, 3.578e-7
-0.546, 3.578e-7
-0.545, 3.578e-7
-0.544, 3.578e-7
-0.543, 3.578e-7
-0.542, 3.609e-7
-0.541, 3.609e-7
-0.540, 3.639e-7
-0.539, 3.639e-7
-0.538, 3.670e-7
-0.537, 3.701e-7
-0.536, 3.670e-7
-0.535, 3.670e-7
-0.534, 3.701e-7
-0.533, 3.670e-7
-0.532, 3.701e-7
-0.531, 3.701e-7
-0.530, 3.731e-7
-0.529, 3.731e-7
-0.528, 3.762e-7
-0.527, 3.762e-7
-0.526, 3.762e-7
-0.525, 3.762e-7
-0.524, 3.762e-7
-0.523, 3.762e-7
-0.522, 3.762e-7
-0.521, 3.792e-7
-0.520, 3.823e-7
-0.519, 3.823e-7
-0.518, 3.854e-7
-0.517, 3.854e-7
-0.516, 3.854e-7
-0.515, 3.854e-7
-0.514, 3.884e-7
-0.513, 3.854e-7
-0.512, 3.884e-7
-0.511, 3.915e-7
-0.510, 3.915e-7
-0.509, 3.915e-7
-0.508, 3.945e-7
-0.507, 3.945e-7
-0.506, 3.945e-7
-0.505, 3.945e-7
-0.504, 3.945e-7
-0.503, 3.945e-7
-0.502, 3.945e-7
-0.501, 3.976e-7
-0.500, 4.007e-7
-0.499, 3.976e-7
-0.498, 4.037e-7
-0.497, 4.037e-7
-0.496, 4.037e-7
-0.495, 4.037e-7
-0.494, 4.037e-7
-0.493, 4.037e-7
-0.492, 4.068e-7
-0.491, 4.068e-7
-0.490, 4.068e-7
-0.489, 4.068e-7
-0.488, 4.098e-7
-0.487, 4.129e-7
-0.486, 4.129e-7
-0.485, 4.098e-7
-0.484, 4.129e-7
-0.483, 4.129e-7
-0.482, 4.129e-7
-0.481, 4.160e-7
-0.480, 4.160e-7
-0.479, 4.160e-7
-0.478, 4.190e-7
-0.477, 4.190e-7
-0.476, 4.190e-7
-0.475, 4.190e-7
-0.474, 4.190e-7
-0.473, 4.190e-7
-0.472, 4.190e-7
-0.471, 4.190e-7
-0.470, 4.221e-7
-0.469, 4.252e-7
-0.468, 4.252e-7
-0.467, 4.252e-7
-0.466, 4.252e-7
-0.465, 4.252e-7
-0.464, 4.252e-7
-0.463, 4.252e-7
-0.462, 4.252e-7
-0.461, 4.282e-7
-0.460, 4.313e-7
-0.459, 4.313e-7
-0.458, 4.343e-7
-0.457, 4.343e-7
-0.456, 4.313e-7
-0.455, 4.313e-7
-0.454, 4.313e-7
-0.453, 4.313e-7
-0.452, 4.343e-7
-0.451, 4.343e-7
-0.450, 4.374e-7
-0.449, 4.374e-7
-0.448, 4.374e-7
-0.447, 4.374e-7
-0.446, 4.405e-7
-0.445, 4.374e-7
-0.444, 4.405e-7
-0.443, 4.405e-7
-0.442, 4.405e-7
-0.441, 4.405e-7
-0.440, 4.435e-7
-0.439, 4.435e-7
-0.438, 4.466e-7
-0.437, 4.466e-7
-0.436, 4.466e-7
-0.435, 4.466e-7
-0.434, 4.466e-7
-0.433, 4.466e-7
-0.432, 4.466e-7
-0.431, 4.496e-7
-0.430, 4.496e-7
-0.429, 4.496e-7
-0.428, 4.527e-7
-0.427, 4.527e-7
-0.426, 4.527e-7
-0.425, 4.527e-7
-0.424, 4.527e-7
-0.423, 4.527e-7
-0.422, 4.527e-7
-0.421, 4.558e-7
-0.420, 4.558e-7
-0.419, 4.558e-7
-0.418, 4.588e-7
-0.417, 4.588e-7
-0.416, 4.588e-7
-0.415, 4.588e-7
-0.414, 4.588e-7
-0.413, 4.588e-7
-0.412, 4.588e-7
-0.411, 4.588e-7
-0.410, 4.619e-7
-0.409, 4.588e-7
-0.408, 4.649e-7
-0.407, 4.649e-7
-0.406, 4.649e-7
-0.405, 4.649e-7
-0.404, 4.649e-7
-0.403, 4.619e-7
-0.402, 4.649e-7
-0.401, 4.649e-7
-0.400, 4.680e-7
-0.399, 4.680e-7
-0.398, 4.711e-7
-0.397, 4.680e-7
-0.396, 4.680e-7
-0.395, 4.680e-7
-0.394, 4.680e-7
-0.393, 4.680e-7
-0.392, 4.680e-7
-0.391, 4.711e-7
-0.390, 4.711e-7
-0.389, 4.711e-7
-0.388, 4.741e-7
-0.387, 4.741e-7
-0.386, 4.741e-7
-0.385, 4.711e-7
-0.384, 4.741e-7
-0.383, 4.741e-7
-0.382, 4.711e-7
-0.381, 4.741e-7
-0.380, 4.741e-7
-0.379, 4.741e-7
-0.378, 4.772e-7
-0.377, 4.772e-7
-0.376, 4.772e-7
-0.375, 4.741e-7
-0.374, 4.741e-7
-0.373, 4.772e-7
-0.372, 4.741e-7
-0.371, 4.772e-7
-0.370, 4.772e-7
-0.369, 4.772e-7
-0.368, 4.802e-7
-0.367, 4.802e-7
-0.366, 4.772e-7
-0.365, 4.772e-7
-0.364, 4.772e-7
-0.363, 4.772e-7
-0.362, 4.772e-7
-0.361, 4.802e-7
-0.360, 4.802e-7
-0.359, 4.802e-7
-0.358, 4.833e-7
-0.357, 4.833e-7
-0.356, 4.802e-7
-0.355, 4.802e-7
-0.354, 4.802e-7
-0.353, 4.802e-7
-0.352, 4.802e-7
-0.351, 4.802e-7
-0.350, 4.833e-7
-0.349, 4.833e-7
-0.348, 4.833e-7
-0.347, 4.864e-7
-0.346, 4.833e-7
-0.345, 4.833e-7
-0.344, 4.833e-7
-0.343, 4.802e-7
-0.342, 4.833e-7
-0.341, 4.864e-7
-0.340, 4.833e-7
-0.339, 4.833e-7
-0.338, 4.864e-7
-0.337, 4.864e-7
-0.336, 4.864e-7
-0.335, 4.864e-7
-0.334, 4.864e-7
-0.333, 4.864e-7
-0.332, 4.864e-7
-0.331, 4.864e-7
-0.330, 4.864e-7
-0.329, 4.864e-7
-0.328, 4.894e-7
-0.327, 4.894e-7
-0.326, 4.864e-7
-0.325, 4.894e-7
-0.324, 4.894e-7
-0.323, 4.864e-7
-0.322, 4.894e-7
-0.321, 4.894e-7
-0.320, 4.894e-7
-0.319, 4.894e-7
-0.318, 4.894e-7
-0.317, 4.925e-7
-0.316, 4.925e-7
-0.315, 4.894e-7
-0.314, 4.894e-7
-0.313, 4.894e-7
-0.312, 4.894e-7
-0.311, 4.925e-7
-0.310, 4.925e-7
-0.309, 4.925e-7
-0.308, 4.925e-7
-0.307, 4.956e-7
-0.306, 4.956e-7
-0.305, 4.925e-7
-0.304, 4.925e-7
-0.303, 4.925e-7
-0.302, 4.925e-7
-0.301, 4.956e-7
-0.300, 4.956e-7
-0.299, 4.956e-7
-0.298, 4.986e-7
-0.297, 4.986e-7
-0.296, 4.986e-7
-0.295, 4.956e-7
-0.294, 4.956e-7
-0.293, 4.956e-7
-0.292, 4.956e-7
-0.291, 4.986e-7
-0.290, 4.986e-7
-0.289, 4.986e-7
-0.288, 5.017e-7
-0.287, 5.017e-7
-0.286, 4.986e-7
-0.285, 4.986e-7
-0.284, 5.017e-7
-0.283, 4.986e-7
-0.282, 5.017e-7
-0.281, 5.017e-7
-0.280, 5.017e-7
-0.279, 5.017e-7
-0.278, 5.047e-7
-0.277, 5.047e-7
-0.276, 5.047e-7
-0.275, 5.017e-7
-0.274, 5.047e-7
-0.273, 5.047e-7
-0.272, 5.017e-7
-0.271, 5.047e-7
-0.270, 5.078e-7
-0.269, 5.047e-7
-0.268, 5.109e-7
-0.267, 5.078e-7
-0.266, 5.078e-7
-0.265, 5.078e-7
-0.264, 5.078e-7
-0.263, 5.078e-7
-0.262, 5.078e-7
-0.261, 5.078e-7
-0.260, 5.109e-7
-0.259, 5.109e-7
-0.258, 5.109e-7
-0.257, 5.139e-7
-0.256, 5.139e-7
-0.255, 5.109e-7
-0.254, 5.109e-7
-0.253, 5.109e-7
-0.252, 5.109e-7
-0.251, 5.139e-7
-0.250, 5.139e-7
-0.249, 5.139e-7
-0.248, 5.170e-7
-0.247, 5.170e-7
-0.246, 5.170e-7
-0.245, 5.170e-7
-0.244, 5.170e-7
-0.243, 5.139e-7
-0.242, 5.170e-7
-0.241, 5.170e-7
-0.240, 5.200e-7
-0.239, 5.200e-7
-0.238, 5.231e-7
-0.237, 5.231e-7
-0.236, 5.231e-7
-0.235, 5.200e-7
-0.234, 5.231e-7
-0.233, 5.200e-7
-0.232, 5.200e-7
-0.231, 5.231e-7
-0.230, 5.262e-7
-0.229, 5.262e-7
-0.228, 5.292e-7
-0.227, 5.292e-7
-0.226, 5.292e-7
-0.225, 5.262e-7
-0.224, 5.292e-7
-0.223, 5.292e-7
-0.222, 5.262e-7
-0.221, 5.292e-7
-0.220, 5.323e-7
-0.219, 5.323e-7
-0.218, 5.323e-7
-0.217, 5.323e-7
-0.216, 5.323e-7
-0.215, 5.323e-7
-0.214, 5.353e-7
-0.213, 5.323e-7
-0.212, 5.323e-7
-0.211, 5.353e-7
-0.210, 5.353e-7
-0.209, 5.353e-7
-0.208, 5.384e-7
-0.207, 5.384e-7
-0.206, 5.384e-7
-0.205, 5.384e-7
-0.204, 5.415e-7
-0.203, 5.384e-7
-0.202, 5.384e-7
-0.201, 5.415e-7
-0.200, 5.415e-7
-0.199, 5.445e-7
-0.198, 5.445e-7
-0.197, 5.476e-7
-0.196, 5.445e-7
-0.195, 5.445e-7
-0.194, 5.476e-7
-0.193, 5.445e-7
-0.192, 5.476e-7
-0.191, 5.476e-7
-0.190, 5.506e-7
-0.189, 5.506e-7
-0.188, 5.506e-7
-0.187, 5.537e-7
-0.186, 5.537e-7
-0.185, 5.506e-7
-0.184, 5.537e-7
-0.183, 5.537e-7
-0.182, 5.537e-7
-0.181, 5.537e-7
-0.180, 5.568e-7
-0.179, 5.568e-7
-0.178, 5.598e-7
-0.177, 5.598e-7
-0.176, 5.598e-7
-0.175, 5.598e-7
-0.174, 5.598e-7
-0.173, 5.598e-7
-0.172, 5.598e-7
-0.171, 5.629e-7
-0.170, 5.629e-7
-0.169, 5.629e-7
-0.168, 5.660e-7
-0.167, 5.660e-7
-0.166, 5.660e-7
-0.165, 5.660e-7
-0.164, 5.660e-7
-0.163, 5.690e-7
-0.162, 5.660e-7
-0.161, 5.690e-7
-0.160, 5.721e-7
-0.159, 5.690e-7
-0.158, 5.721e-7
-0.157, 5.751e-7
-0.156, 5.721e-7
-0.155, 5.751e-7
-0.154, 5.751e-7
-0.153, 5.751e-7
-0.152, 5.751e-7
-0.151, 5.751e-7
-0.150, 5.782e-7
-0.149, 5.782e-7
-0.148, 5.813e-7
-0.147, 5.813e-7
-0.146, 5.813e-7
-0.145, 5.813e-7
-0.144, 5.843e-7
-0.143, 5.843e-7
-0.142, 5.813e-7
-0.141, 5.843e-7
-0.140, 5.874e-7
-0.139, 5.874e-7
-0.138, 5.904e-7
-0.137, 5.904e-7
-0.136, 5.904e-7
-0.135, 5.904e-7
-0.134, 5.904e-7
-0.133, 5.904e-7
-0.132, 5.904e-7
-0.131, 5.935e-7
-0.130, 5.966e-7
-0.129, 5.966e-7
-0.128, 5.996e-7
-0.127, 5.996e-7
-0.126, 5.996e-7
-0.125, 5.996e-7
-0.124, 5.996e-7
-0.123, 5.996e-7
-0.122, 5.996e-7
-0.121, 6.027e-7
-0.120, 6.057e-7
-0.119, 6.057e-7
-0.118, 6.088e-7
-0.117, 6.088e-7
-0.116, 6.088e-7
-0.115, 6.057e-7
-0.114, 6.088e-7
-0.113, 6.088e-7
-0.112, 6.088e-7
-0.111, 6.119e-7
-0.110, 6.149e-7
-0.109, 6.149e-7
-0.108, 6.149e-7
-0.107, 6.180e-7
-0.106, 6.180e-7
-0.105, 6.180e-7
-0.104, 6.180e-7
-0.103, 6.180e-7
-0.102, 6.210e-7
-0.101, 6.241e-7
-0.100, 6.241e-7
-0.099, 6.241e-7
-0.098, 6.272e-7
-0.097, 6.272e-7
-0.096, 6.272e-7
-0.095, 6.272e-7
-0.094, 6.272e-7
-0.093, 6.302e-7
-0.092, 6.302e-7
-0.091, 6.302e-7
-0.090, 6.333e-7
-0.089, 6.333e-7
-0.088, 6.363e-7
-0.087, 6.394e-7
-0.086, 6.363e-7
-0.085, 6.363e-7
-0.084, 6.363e-7
-0.083, 6.363e-7
-0.082, 6.363e-7
-0.081, 6.394e-7
-0.080, 6.425e-7
-0.079, 6.425e-7
-0.078, 6.455e-7
-0.077, 6.486e-7
-0.076, 6.486e-7
-0.075, 6.486e-7
-0.074, 6.486e-7
-0.073, 6.486e-7
-0.072, 6.486e-7
-0.071, 6.517e-7
-0.070, 6.547e-7
-0.069, 6.547e-7
-0.068, 6.578e-7
-0.067, 6.578e-7
-0.066, 6.578e-7
-0.065, 6.578e-7
-0.064, 6.608e-7
-0.063, 6.608e-7
-0.062, 6.608e-7
-0.061, 6.639e-7
-0.060, 6.639e-7
-0.059, 6.639e-7
-0.058, 6.670e-7
-0.057, 6.700e-7
-0.056, 6.700e-7
-0.055, 6.700e-7
-0.054, 6.700e-7
-0.053, 6.700e-7
-0.052, 6.700e-7
-0.051, 6.731e-7
-0.050, 6.761e-7
-0.049, 6.761e-7
-0.048, 6.792e-7
-0.047, 6.823e-7
-0.046, 6.792e-7
-0.045, 6.792e-7
-0.044, 6.823e-7
-0.043, 6.823e-7
-0.042, 6.823e-7
-0.041, 6.853e-7
-0.040, 6.853e-7
-0.039, 6.884e-7
-0.038, 6.884e-7
-0.037, 6.914e-7
-0.036, 6.914e-7
-0.035, 6.914e-7
-0.034, 6.914e-7
-0.033, 6.945e-7
-0.032, 6.945e-7
-0.031, 6.945e-7
-0.030, 6.976e-7
-0.029, 7.006e-7
-0.028, 7.037e-7
-0.027, 7.037e-7
-0.026, 7.037e-7
-0.025, 7.037e-7
-0.024, 7.067e-7
-0.023, 7.067e-7
-0.022, 7.067e-7
-0.021, 7.098e-7
-0.020, 7.098e-7
-0.019, 7.098e-7
-0.018, 7.129e-7
-0.017, 7.159e-7
-0.016, 7.159e-7
-0.015, 7.159e-7
-0.014, 7.159e-7
-0.013, 7.190e-7
-0.012, 7.159e-7
-0.011, 7.190e-7
-0.010, 7.221e-7
-0.009, 7.251e-7
-0.008, 7.251e-7
-0.007, 7.282e-7
-0.006, 7.251e-7
-0.005, 7.282e-7
-0.004, 7.282e-7
-0.003, 7.312e-7
-0.002, 7.312e-7
-0.001, 7.312e-7
